,0,1,2,3,4,5,6,7,8,9,10,11,12,13,14
190,0.268,0.22,0.035,0.121,-0.452,-0.012,-0.256,-0.099,-0.203,-0.006,-0.134,0.11,0.197,0.194,0.131
191,0.33,0.258,0.106,0.052,-0.67,-0.181,-0.563,-0.377,-0.058,-0.115,-0.11,-0.05,-0.002,0.114,0.011
192,0.367,0.204,0.105,-0.229,-0.731,-0.41,-0.554,-0.612,-0.081,-0.194,-0.144,-0.126,-0.079,0.001,-0.022
193,0.217,0.187,0.053,-0.303,-0.434,-0.438,-0.522,-0.835,0.075,-0.163,-0.162,-0.125,-0.178,-0.02,0.081
194,0.044,0.231,-0.001,-0.267,-0.275,-0.4,-0.385,-0.857,-0.126,-0.213,-0.012,-0.023,-0.115,-0.012,0.062
195,0.117,0.261,-0.067,-0.133,-0.469,-0.269,-0.344,-0.816,-0.253,-0.314,0.142,-0.027,-0.049,0.006,0.011
196,0.025,0.008,0.034,0.143,-0.706,-0.121,-0.531,-0.78,-0.142,-0.341,0.204,-0.048,0.128,-0.034,-0.058
197,-0.026,0.004,0.095,0.012,-0.732,-0.182,-0.424,-0.77,-0.206,-0.435,0.147,-0.072,0.274,0.01,-0.02
198,-0.053,0.064,0.156,-0.152,-0.525,-0.128,-0.194,-0.744,-0.056,-0.371,-0.043,-0.134,0.057,0.122,0.185
199,-0.056,0.087,0.177,-0.342,-0.202,-0.25,-0.126,-0.828,-0.203,-0.278,-0.109,-0.006,-0.103,0.158,0.388
200,-0.01,0.191,0.144,-0.257,-0.142,-0.248,-0.132,-0.915,-0.015,-0.095,-0.051,0.085,-0.21,0.132,0.529
201,0.036,0.085,0.133,-0.073,-0.242,-0.44,-0.008,-0.666,0.059,-0.207,0.119,0.01,-0.072,0.093,0.647
202,0.088,0.228,0.085,0.095,-0.293,-0.539,0.016,-0.426,-0.038,-0.348,0.108,0.027,0.244,0.139,0.597
203,0.199,0.134,0.052,0.211,-0.244,-0.476,-0.013,-0.251,-0.081,-0.676,0.129,-0.016,0.215,0.312,0.603
204,0.352,0.051,0.084,0.26,-0.269,-0.138,-0.061,-0.271,-0.161,-0.645,0.188,0.146,0.163,0.414,0.612
205,0.367,0.012,0.132,0.244,-0.385,-0.139,-0.086,-0.565,0.01,-0.269,0.239,0.34,0.138,0.384,0.875
206,0.359,0.061,0.097,0.078,-0.474,-0.31,-0.015,-0.697,-0.021,0.05,0.405,0.378,0.297,0.386,1.256
207,0.309,0.06,0.066,0.088,-0.421,-0.309,0.013,-0.671,-0.098,0.058,0.451,0.58,0.486,0.55,1.255
208,0.169,0.138,0.025,0.146,-0.253,-0.355,-0.245,-0.648,-0.135,-0.103,0.617,0.66,0.526,0.836,1.148
209,0.144,0.205,0.056,0.143,-0.107,-0.17,-0.131,-0.661,-0.148,-0.099,0.558,0.765,0.566,0.96,1.06
210,0.03,0.163,0.1,0.101,-0.398,-0.174,0.034,-0.749,-0.087,-0.101,0.699,0.944,0.87,0.974,1.088
211,0.028,0.12,0.141,0.057,-0.521,-0.049,0.027,-0.599,-0.118,0.017,0.927,1.125,1.25,0.837,1.067
212,0.173,-0.053,0.141,0.138,-0.439,0.103,0.069,-0.392,-0.28,0.076,1.107,1.311,1.38,0.747,0.815
213,0.177,0.133,0.142,0.187,-0.367,0.001,-0.183,-0.37,-0.293,0.167,1.116,1.184,1.238,0.628,0.627
214,0.216,0.256,0.14,0.176,-0.323,-0.04,-0.292,-0.385,-0.199,0.147,1.071,1.01,1.1,0.519,0.568
215,0.308,0.329,0.186,0.189,-0.425,-0.048,-0.232,-0.381,-0.096,0,1.268,0.891,1.027,0.479,0.535
216,0.435,0.479,0.355,0.515,-0.28,0.056,-0.232,-0.539,0.065,-0.208,1.231,0.994,1.166,0.475,0.543
217,0.985,0.668,0.54,0.766,-0.039,0.042,-0.28,-0.833,0.004,-0.209,1.262,1.099,1.217,0.498,0.57
218,1.267,0.88,0.845,1.18,-0.181,-0.037,-0.19,-0.968,-0.189,-0.242,1.186,1.123,1.274,0.537,0.621
219,1.276,1.127,0.996,1.525,-0.302,0.012,-0.054,-0.59,-0.163,0.171,1.216,1.063,1.231,0.578,0.684
220,1.341,1.135,1.061,1.642,-0.252,0.054,0.132,-0.105,-0.072,0.395,1.252,1.262,1.163,0.629,0.754
221,1.196,1.096,1.054,1.624,-0.081,0.233,0.269,0.181,0.21,0.449,1.078,1.444,1.185,0.684,0.8
222,1.42,1.021,1.022,1.243,0.22,0.188,0.179,0.228,0.301,0.349,1.072,1.576,1.13,0.743,0.87
223,1.368,0.943,1.057,1.141,0.205,0.211,0.21,0.207,0.33,0.178,1.281,1.505,1.172,0.808,0.94
224,1.178,0.92,1.012,1.194,0.23,0.229,0.239,0.205,0.403,0.331,1.649,1.327,1.284,0.877,1.003
225,1.251,0.824,0.988,1.309,0.229,0.37,0.259,0.256,0.613,0.501,1.766,1.388,1.46,0.957,1.093
226,1.174,0.711,1.001,1.237,0.213,0.466,0.368,0.391,0.951,0.751,1.688,1.464,1.484,1.038,1.191
227,1.22,0.559,1.038,1.18,0.396,0.643,0.617,0.703,1.269,1.018,1.531,1.515,1.37,1.134,1.327
228,1.223,0.681,1.087,1.397,0.808,0.913,1.09,1.03,1.398,1.269,1.817,1.765,1.497,1.248,1.483
229,1.317,0.796,1.084,1.54,1.223,1.187,1.436,1.168,1.281,1.247,2.05,1.875,1.634,1.343,1.547
230,1.292,0.771,0.988,1.571,1.384,1.429,1.504,1.04,1.004,1.002,1.915,1.907,1.678,1.385,1.655
231,1.105,0.604,0.821,1.317,1.202,1.293,1.298,0.763,0.717,0.726,1.725,1.905,1.407,1.434,1.683
232,0.833,0.397,0.602,0.942,0.883,1.018,0.96,0.535,0.497,0.51,1.286,1.696,1.195,1.415,1.659
233,0.711,0.299,0.485,0.884,0.696,0.78,0.744,0.41,0.38,0.388,1.191,1.568,1.35,1.402,1.7
234,0.759,0.244,0.413,0.715,0.582,0.659,0.609,0.347,0.321,0.324,1.096,1.407,1.338,1.36,1.658
235,0.705,0.18,0.327,0.635,0.526,0.59,0.547,0.313,0.29,0.29,1.049,1.202,1.207,1.33,1.703
236,0.559,0.197,0.269,0.785,0.498,0.561,0.522,0.298,0.277,0.277,1.004,1.15,1.049,1.394,1.692
237,0.317,0.277,0.2,0.759,0.489,0.541,0.517,0.294,0.272,0.273,1.014,1.065,0.981,1.36,1.694
238,0.178,0.256,0.183,0.639,0.489,0.541,0.519,0.293,0.274,0.275,0.956,1.006,1.03,1.323,1.68
239,0.258,0.16,0.179,0.337,0.496,0.552,0.526,0.298,0.28,0.279,0.95,1.176,0.859,1.256,1.754
240,0.366,0.147,0.152,0.291,0.506,0.564,0.54,0.303,0.285,0.287,0.87,1.301,0.747,1.203,1.775
241,0.399,0.145,0.161,0.533,0.519,0.582,0.553,0.308,0.288,0.292,0.854,1.39,0.782,1.336,1.902
242,0.32,0.23,0.184,0.697,0.536,0.597,0.569,0.316,0.294,0.297,1.017,1.434,0.843,1.444,1.995
243,0.28,0.173,0.195,0.679,0.549,0.614,0.585,0.323,0.302,0.305,1.032,1.276,0.961,1.471,1.964
244,0.253,0.162,0.197,0.582,0.558,0.632,0.594,0.328,0.308,0.31,1.074,1.217,0.919,1.484,1.967
245,0.263,0.171,0.183,0.737,0.563,0.643,0.6,0.333,0.313,0.313,0.979,1.236,1.054,1.445,1.812
246,0.283,0.181,0.155,0.651,0.569,0.653,0.604,0.336,0.314,0.315,0.995,1.252,1.19,1.493,1.877
247,0.265,0.175,0.147,0.695,0.581,0.661,0.615,0.341,0.318,0.32,1.116,1.372,1.375,1.521,1.925
248,0.311,0.119,0.158,0.657,0.592,0.672,0.631,0.348,0.325,0.327,1.24,1.353,1.374,1.506,1.986
249,0.285,0.111,0.161,0.559,0.6,0.679,0.639,0.352,0.328,0.332,1.257,1.241,1.22,1.5,1.969
250,0.281,0.09,0.163,0.54,0.6,0.681,0.638,0.353,0.33,0.334,1.325,1.185,1.214,1.456,1.856
251,0.392,0.11,0.178,0.399,0.599,0.68,0.637,0.352,0.329,0.334,1.314,1.176,1.262,1.424,1.817
252,0.502,0.14,0.203,0.575,0.608,0.683,0.644,0.353,0.331,0.336,1.298,1.335,1.319,1.369,1.726
253,0.545,0.176,0.26,0.675,0.621,0.701,0.656,0.361,0.342,0.341,1.367,1.423,1.387,1.312,1.648
254,0.603,0.163,0.3,0.671,0.626,0.71,0.664,0.367,0.347,0.345,1.296,1.412,1.433,1.225,1.511
255,0.58,0.136,0.338,0.658,0.614,0.703,0.652,0.364,0.342,0.34,1.5,1.424,1.493,1.115,1.338
256,0.624,0.23,0.41,0.63,0.599,0.681,0.633,0.355,0.333,0.332,1.618,1.44,1.498,0.987,1.198
257,0.711,0.319,0.489,0.751,0.592,0.664,0.625,0.35,0.328,0.329,1.662,1.471,1.393,0.851,1.037
258,0.801,0.367,0.609,0.883,0.612,0.688,0.648,0.361,0.34,0.339,1.598,1.424,1.352,0.72,0.868
259,1.051,0.612,0.826,1.089,0.652,0.733,0.696,0.384,0.359,0.36,1.409,1.29,1.185,0.604,0.728
260,1.243,0.884,1.062,1.402,0.684,0.77,0.726,0.399,0.373,0.374,1.227,1.111,0.999,0.5,0.601
261,1.451,1.114,1.264,1.558,0.678,0.763,0.713,0.394,0.368,0.37,1.06,0.957,0.85,0.418,0.503
262,1.67,1.217,1.353,1.598,0.634,0.719,0.666,0.37,0.347,0.348,0.898,0.809,0.724,0.353,0.429
263,1.77,1.287,1.306,1.424,0.585,0.664,0.614,0.341,0.322,0.322,0.773,0.697,0.628,0.302,0.369
264,1.753,1.448,1.186,1.176,0.55,0.617,0.578,0.32,0.302,0.302,0.682,0.615,0.557,0.267,0.325
265,1.568,1.497,0.992,0.941,0.539,0.598,0.565,0.312,0.294,0.296,0.623,0.561,0.509,0.244,0.296
266,1.35,1.403,0.799,0.774,0.529,0.587,0.554,0.308,0.289,0.291,0.587,0.523,0.479,0.233,0.277
267,1.189,1.215,0.65,0.633,0.5,0.558,0.523,0.293,0.273,0.277,0.566,0.506,0.467,0.229,0.27
268,1.015,1.063,0.549,0.54,0.449,0.505,0.468,0.264,0.245,0.252,0.56,0.502,0.464,0.229,0.268
269,0.869,0.926,0.475,0.467,0.4,0.449,0.416,0.234,0.22,0.224,0.564,0.507,0.465,0.229,0.27
270,0.799,0.851,0.433,0.429,0.363,0.406,0.379,0.211,0.199,0.204,0.573,0.519,0.474,0.232,0.274
271,0.78,0.826,0.419,0.416,0.32,0.354,0.333,0.187,0.176,0.179,0.585,0.53,0.483,0.238,0.279
272,0.785,0.829,0.422,0.422,0.254,0.277,0.261,0.149,0.139,0.142,0.596,0.54,0.497,0.244,0.283
273,0.798,0.831,0.428,0.427,0.178,0.191,0.181,0.107,0.1,0.101,0.606,0.548,0.51,0.248,0.287
274,0.788,0.821,0.425,0.422,0.129,0.136,0.127,0.078,0.074,0.075,0.616,0.552,0.516,0.248,0.289
275,0.753,0.788,0.408,0.407,0.102,0.108,0.099,0.064,0.06,0.061,0.62,0.56,0.521,0.25,0.294
276,0.704,0.743,0.381,0.383,0.088,0.094,0.083,0.056,0.054,0.055,0.628,0.569,0.523,0.253,0.3
277,0.659,0.702,0.356,0.363,0.077,0.082,0.072,0.049,0.049,0.05,0.637,0.58,0.532,0.256,0.305
278,0.65,0.688,0.349,0.355,0.068,0.07,0.062,0.045,0.044,0.044,0.648,0.59,0.542,0.262,0.311
279,0.678,0.715,0.365,0.369,0.062,0.063,0.055,0.04,0.039,0.041,0.66,0.598,0.555,0.267,0.313
280,0.727,0.763,0.392,0.395,0.057,0.058,0.051,0.038,0.036,0.039,0.664,0.601,0.56,0.269,0.314
281,0.773,0.816,0.417,0.421,0.054,0.055,0.048,0.037,0.034,0.037,0.661,0.597,0.554,0.267,0.31
282,0.777,0.821,0.419,0.424,0.052,0.053,0.046,0.036,0.033,0.035,0.647,0.581,0.538,0.259,0.303
283,0.723,0.763,0.39,0.392,0.051,0.05,0.044,0.035,0.031,0.033,0.62,0.555,0.518,0.249,0.293
284,0.618,0.654,0.335,0.337,0.049,0.047,0.042,0.034,0.03,0.032,0.59,0.531,0.495,0.239,0.281
285,0.498,0.533,0.272,0.276,0.049,0.045,0.041,0.034,0.03,0.033,0.563,0.51,0.475,0.229,0.27
286,0.408,0.443,0.224,0.234,0.047,0.045,0.039,0.032,0.03,0.032,0.542,0.495,0.456,0.221,0.26
287,0.364,0.398,0.2,0.214,0.046,0.044,0.038,0.031,0.028,0.031,0.527,0.481,0.442,0.215,0.252
288,0.377,0.408,0.208,0.219,0.045,0.04,0.036,0.03,0.027,0.03,0.514,0.462,0.429,0.209,0.244
289,0.45,0.486,0.25,0.255,0.043,0.036,0.033,0.028,0.023,0.028,0.495,0.443,0.412,0.201,0.235
290,0.527,0.566,0.291,0.294,0.04,0.036,0.032,0.027,0.021,0.028,0.47,0.422,0.392,0.19,0.224
291,0.526,0.565,0.289,0.294,0.034,0.035,0.03,0.025,0.022,0.027,0.437,0.393,0.364,0.175,0.208
292,0.417,0.452,0.23,0.238,0.032,0.034,0.028,0.024,0.023,0.027,0.395,0.356,0.331,0.158,0.188
293,0.257,0.284,0.145,0.158,0.031,0.03,0.026,0.022,0.022,0.025,0.346,0.312,0.29,0.139,0.165
294,0.133,0.155,0.081,0.099,0.03,0.028,0.024,0.021,0.02,0.024,0.296,0.268,0.246,0.119,0.142
295,0.068,0.087,0.047,0.068,0.028,0.026,0.023,0.02,0.019,0.023,0.247,0.225,0.202,0.099,0.12
296,0.037,0.055,0.031,0.052,0.026,0.022,0.019,0.019,0.017,0.021,0.202,0.183,0.163,0.079,0.098
297,0.023,0.039,0.024,0.044,0.025,0.02,0.016,0.018,0.016,0.019,0.162,0.145,0.13,0.064,0.079
298,0.014,0.032,0.02,0.039,0.025,0.02,0.015,0.018,0.014,0.017,0.128,0.114,0.104,0.051,0.063
299,0.01,0.029,0.018,0.036,0.025,0.019,0.015,0.018,0.015,0.019,0.105,0.093,0.084,0.041,0.053
300,0.008,0.027,0.016,0.035,0.023,0.019,0.016,0.018,0.016,0.02,0.086,0.076,0.069,0.034,0.046
301,0.006,0.023,0.013,0.034,0.022,0.017,0.016,0.016,0.017,0.019,0.069,0.062,0.055,0.028,0.037
302,0.003,0.02,0.012,0.032,0.021,0.015,0.014,0.014,0.017,0.017,0.057,0.05,0.046,0.024,0.032
303,0.003,0.018,0.013,0.032,0.022,0.014,0.012,0.015,0.014,0.015,0.048,0.043,0.038,0.021,0.026
304,0.001,0.017,0.013,0.031,0.022,0.012,0.011,0.015,0.012,0.014,0.042,0.036,0.032,0.018,0.023
305,0.001,0.016,0.013,0.031,0.022,0.012,0.01,0.015,0.011,0.014,0.037,0.031,0.028,0.016,0.021
306,0.001,0.018,0.014,0.031,0.023,0.014,0.011,0.015,0.014,0.016,0.035,0.029,0.025,0.015,0.02
307,0.001,0.019,0.013,0.031,0.023,0.015,0.012,0.014,0.016,0.017,0.034,0.029,0.025,0.014,0.02
308,0.001,0.019,0.013,0.032,0.022,0.015,0.014,0.014,0.017,0.018,0.034,0.029,0.024,0.014,0.02
309,0.002,0.017,0.012,0.03,0.02,0.014,0.014,0.014,0.015,0.016,0.033,0.028,0.025,0.012,0.019
310,0,0.016,0.011,0.028,0.018,0.013,0.012,0.013,0.012,0.014,0.03,0.025,0.026,0.011,0.018
311,-0.003,0.016,0.011,0.027,0.018,0.012,0.01,0.012,0.011,0.012,0.029,0.024,0.025,0.011,0.018
312,-0.003,0.016,0.011,0.028,0.02,0.013,0.01,0.013,0.012,0.012,0.029,0.025,0.025,0.011,0.016
313,-0.004,0.015,0.011,0.029,0.02,0.013,0.01,0.014,0.012,0.013,0.028,0.025,0.024,0.013,0.016
314,-0.002,0.015,0.01,0.03,0.02,0.013,0.01,0.013,0.013,0.016,0.028,0.025,0.025,0.012,0.015
315,-0.001,0.015,0.01,0.028,0.021,0.013,0.009,0.012,0.012,0.014,0.028,0.022,0.024,0.012,0.015
316,-0.001,0.015,0.009,0.025,0.021,0.012,0.01,0.012,0.013,0.013,0.027,0.022,0.022,0.012,0.018
317,0.002,0.017,0.01,0.025,0.022,0.014,0.012,0.014,0.014,0.016,0.029,0.024,0.024,0.013,0.017
318,0.001,0.017,0.01,0.025,0.019,0.014,0.013,0.013,0.013,0.017,0.03,0.026,0.024,0.012,0.017
319,-0.001,0.015,0.009,0.025,0.018,0.014,0.012,0.012,0.011,0.015,0.029,0.025,0.024,0.01,0.016
320,-0.002,0.016,0.01,0.025,0.018,0.014,0.012,0.011,0.01,0.013,0.029,0.023,0.022,0.011,0.016
321,-0.002,0.016,0.01,0.025,0.019,0.012,0.012,0.011,0.01,0.014,0.026,0.023,0.02,0.012,0.017
322,-0.001,0.015,0.011,0.026,0.02,0.012,0.011,0.012,0.011,0.016,0.026,0.024,0.02,0.013,0.017
323,-0.001,0.016,0.01,0.027,0.02,0.013,0.011,0.011,0.013,0.016,0.029,0.025,0.023,0.012,0.017
324,-0.003,0.013,0.008,0.026,0.02,0.013,0.009,0.01,0.012,0.013,0.027,0.022,0.022,0.011,0.016
325,-0.002,0.013,0.009,0.024,0.02,0.015,0.01,0.01,0.01,0.012,0.028,0.022,0.022,0.011,0.014
326,-0.001,0.015,0.009,0.024,0.018,0.014,0.01,0.01,0.01,0.012,0.027,0.022,0.022,0.009,0.015
327,-0.001,0.017,0.01,0.024,0.017,0.014,0.01,0.011,0.011,0.013,0.029,0.025,0.021,0.009,0.017
328,-0.002,0.017,0.01,0.024,0.018,0.015,0.01,0.011,0.013,0.015,0.03,0.026,0.022,0.006,0.018
329,-0.004,0.014,0.009,0.021,0.017,0.011,0.01,0.009,0.012,0.013,0.026,0.021,0.018,0.004,0.015
330,-0.004,0.012,0.007,0.018,0.017,0.01,0.009,0.008,0.008,0.011,0.024,0.018,0.016,0.005,0.012
331,-0.003,0.012,0.007,0.019,0.016,0.008,0.007,0.008,0.008,0.012,0.024,0.016,0.017,0.006,0.012
332,-0.004,0.011,0.008,0.019,0.017,0.009,0.005,0.009,0.009,0.011,0.025,0.017,0.017,0.008,0.012
333,-0.004,0.012,0.01,0.022,0.019,0.01,0.006,0.01,0.011,0.011,0.026,0.021,0.02,0.009,0.012
334,-0.004,0.012,0.011,0.024,0.019,0.012,0.008,0.011,0.012,0.011,0.026,0.022,0.022,0.009,0.012
335,-0.004,0.014,0.01,0.025,0.018,0.013,0.008,0.009,0.011,0.01,0.024,0.023,0.022,0.01,0.012
336,-0.003,0.014,0.008,0.024,0.018,0.012,0.006,0.008,0.01,0.008,0.023,0.021,0.021,0.008,0.01
337,-0.005,0.011,0.007,0.021,0.018,0.008,0.003,0.006,0.008,0.007,0.021,0.018,0.015,0.005,0.008
338,-0.004,0.012,0.006,0.021,0.018,0.009,0.004,0.007,0.008,0.009,0.023,0.017,0.015,0.006,0.009
339,-0.004,0.012,0.007,0.023,0.016,0.012,0.005,0.008,0.009,0.011,0.025,0.018,0.017,0.007,0.01
340,-0.006,0.01,0.007,0.021,0.014,0.011,0.005,0.008,0.009,0.011,0.023,0.018,0.02,0.009,0.01
341,-0.005,0.01,0.007,0.02,0.015,0.01,0.006,0.008,0.009,0.01,0.021,0.019,0.021,0.009,0.008
342,-0.005,0.01,0.007,0.022,0.015,0.007,0.004,0.008,0.007,0.01,0.021,0.018,0.019,0.008,0.008
343,-0.007,0.009,0.007,0.022,0.016,0.005,0.002,0.008,0.005,0.009,0.02,0.014,0.016,0.008,0.007
344,-0.008,0.008,0.007,0.021,0.016,0.004,0.002,0.009,0.005,0.008,0.018,0.014,0.013,0.006,0.008
345,-0.01,0.005,0.006,0.018,0.014,0.004,0.004,0.008,0.007,0.008,0.016,0.015,0.012,0.006,0.008
346,-0.008,0.006,0.006,0.017,0.015,0.005,0.005,0.007,0.007,0.007,0.016,0.014,0.012,0.006,0.006
347,-0.007,0.008,0.005,0.018,0.013,0.006,0.003,0.007,0.006,0.008,0.016,0.013,0.013,0.005,0.006
348,-0.006,0.01,0.006,0.019,0.015,0.009,0.004,0.007,0.006,0.008,0.017,0.012,0.014,0.004,0.007
349,-0.005,0.011,0.007,0.02,0.015,0.009,0.003,0.007,0.008,0.008,0.018,0.014,0.013,0.003,0.009
350,-0.006,0.011,0.006,0.02,0.015,0.01,0.003,0.007,0.008,0.009,0.019,0.015,0.014,0.004,0.011
351,-0.007,0.007,0.007,0.019,0.015,0.007,0.003,0.007,0.006,0.007,0.016,0.013,0.012,0.006,0.009
352,-0.007,0.007,0.008,0.02,0.016,0.006,0.005,0.008,0.006,0.007,0.016,0.013,0.011,0.008,0.008
353,-0.005,0.01,0.01,0.02,0.018,0.008,0.008,0.01,0.009,0.009,0.016,0.013,0.012,0.009,0.009
354,-0.005,0.011,0.01,0.02,0.018,0.009,0.008,0.008,0.009,0.011,0.017,0.013,0.013,0.007,0.009
355,-0.006,0.01,0.009,0.019,0.016,0.009,0.006,0.006,0.008,0.011,0.016,0.013,0.014,0.004,0.009
356,-0.006,0.007,0.007,0.017,0.014,0.007,0.004,0.005,0.006,0.009,0.014,0.012,0.011,0.001,0.007
357,-0.005,0.008,0.007,0.02,0.013,0.007,0.005,0.007,0.006,0.008,0.015,0.012,0.01,0.001,0.007
358,-0.004,0.009,0.006,0.021,0.013,0.009,0.005,0.009,0.006,0.009,0.015,0.01,0.01,0.002,0.007
359,-0.006,0.009,0.005,0.02,0.013,0.009,0.004,0.009,0.005,0.01,0.014,0.009,0.011,0.004,0.006
360,-0.007,0.007,0.005,0.02,0.014,0.009,0.004,0.008,0.006,0.011,0.012,0.01,0.011,0.006,0.006
361,-0.006,0.008,0.005,0.022,0.015,0.01,0.005,0.008,0.008,0.014,0.013,0.012,0.011,0.007,0.008
362,-0.005,0.009,0.006,0.023,0.015,0.01,0.007,0.009,0.009,0.013,0.013,0.011,0.011,0.005,0.008
363,-0.007,0.009,0.006,0.02,0.015,0.009,0.006,0.009,0.009,0.01,0.011,0.008,0.009,0.004,0.006
364,-0.008,0.008,0.005,0.014,0.015,0.007,0.004,0.008,0.007,0.007,0.009,0.008,0.007,0.004,0.004
365,-0.007,0.009,0.006,0.014,0.015,0.007,0.004,0.008,0.007,0.006,0.011,0.007,0.009,0.004,0.005
366,-0.004,0.01,0.006,0.016,0.015,0.008,0.005,0.008,0.008,0.009,0.014,0.01,0.012,0.004,0.007
367,-0.003,0.009,0.006,0.018,0.014,0.007,0.005,0.008,0.008,0.01,0.014,0.009,0.012,0.003,0.006
368,-0.005,0.007,0.007,0.018,0.014,0.007,0.005,0.008,0.009,0.01,0.011,0.009,0.011,0.004,0.006
369,-0.005,0.009,0.008,0.019,0.015,0.007,0.005,0.008,0.008,0.01,0.012,0.01,0.012,0.006,0.007
370,-0.005,0.011,0.008,0.02,0.015,0.007,0.008,0.008,0.009,0.01,0.012,0.01,0.012,0.005,0.007
371,-0.006,0.01,0.007,0.021,0.015,0.006,0.007,0.007,0.008,0.009,0.009,0.009,0.01,0.003,0.005
372,-0.006,0.008,0.005,0.018,0.015,0.006,0.006,0.006,0.008,0.008,0.009,0.007,0.008,0.002,0.002
373,-0.005,0.007,0.006,0.015,0.014,0.008,0.005,0.007,0.008,0.009,0.01,0.007,0.007,0.004,0.003
374,-0.004,0.007,0.007,0.017,0.015,0.008,0.005,0.008,0.008,0.011,0.013,0.009,0.008,0.004,0.006
375,-0.003,0.009,0.008,0.017,0.015,0.008,0.006,0.008,0.008,0.01,0.013,0.009,0.01,0.004,0.008
376,-0.005,0.009,0.008,0.019,0.016,0.008,0.005,0.008,0.008,0.009,0.01,0.009,0.01,0.004,0.007
377,-0.004,0.011,0.008,0.022,0.016,0.01,0.007,0.01,0.01,0.01,0.012,0.01,0.012,0.005,0.006
378,-0.004,0.011,0.007,0.021,0.016,0.01,0.007,0.011,0.01,0.012,0.013,0.009,0.011,0.006,0.006
379,-0.005,0.01,0.008,0.021,0.018,0.009,0.006,0.011,0.009,0.015,0.014,0.009,0.009,0.007,0.007
380,-0.004,0.011,0.009,0.018,0.018,0.008,0.007,0.011,0.01,0.015,0.015,0.01,0.011,0.006,0.009
381,-0.005,0.01,0.008,0.018,0.018,0.008,0.007,0.01,0.009,0.013,0.014,0.012,0.011,0.005,0.009
382,-0.004,0.009,0.008,0.018,0.018,0.008,0.007,0.01,0.008,0.011,0.013,0.011,0.01,0.005,0.008
383,-0.004,0.009,0.007,0.017,0.016,0.006,0.006,0.009,0.008,0.009,0.012,0.009,0.008,0.005,0.007
384,-0.003,0.009,0.006,0.017,0.015,0.007,0.007,0.009,0.008,0.011,0.012,0.007,0.007,0.004,0.005
385,0,0.012,0.007,0.017,0.015,0.008,0.008,0.009,0.01,0.013,0.015,0.009,0.01,0.003,0.007
386,0,0.013,0.007,0.02,0.016,0.009,0.009,0.009,0.009,0.012,0.014,0.01,0.011,0.003,0.008
387,-0.004,0.012,0.007,0.02,0.016,0.006,0.007,0.009,0.008,0.009,0.011,0.009,0.01,0.003,0.008
388,-0.007,0.011,0.007,0.02,0.017,0.005,0.005,0.01,0.009,0.009,0.007,0.008,0.009,0.003,0.007
389,-0.008,0.009,0.006,0.019,0.015,0.006,0.004,0.008,0.008,0.008,0.006,0.006,0.006,0.001,0.004
390,-0.005,0.009,0.007,0.018,0.015,0.007,0.006,0.008,0.009,0.01,0.009,0.007,0.008,0.001,0.005
391,-0.004,0.01,0.007,0.017,0.015,0.009,0.006,0.008,0.009,0.011,0.011,0.008,0.007,0.002,0.006
392,-0.004,0.009,0.006,0.017,0.014,0.008,0.006,0.008,0.007,0.012,0.012,0.008,0.008,0.002,0.007
393,-0.004,0.01,0.007,0.02,0.015,0.01,0.008,0.009,0.008,0.014,0.014,0.01,0.012,0.003,0.008
394,-0.004,0.01,0.007,0.024,0.015,0.011,0.008,0.007,0.01,0.013,0.013,0.01,0.013,0.002,0.008
395,-0.003,0.009,0.007,0.022,0.014,0.01,0.009,0.006,0.01,0.012,0.013,0.009,0.012,0.002,0.008
396,-0.004,0.01,0.008,0.019,0.015,0.01,0.007,0.008,0.009,0.01,0.01,0.009,0.008,0.004,0.007
397,-0.006,0.008,0.007,0.018,0.015,0.008,0.005,0.009,0.007,0.008,0.011,0.008,0.006,0.005,0.004
398,-0.007,0.008,0.008,0.02,0.016,0.006,0.005,0.01,0.006,0.008,0.013,0.009,0.007,0.006,0.004
399,-0.006,0.009,0.009,0.021,0.016,0.007,0.007,0.011,0.007,0.011,0.015,0.011,0.008,0.005,0.005
400,-0.004,0.008,0.008,0.018,0.015,0.006,0.006,0.01,0.007,0.01,0.011,0.01,0.007,0.004,0.005
401,-0.005,0.007,0.008,0.015,0.018,0.005,0.004,0.01,0.007,0.007,0.008,0.007,0.007,0.006,0.002
402,-0.007,0.006,0.009,0.016,0.02,0.004,0.003,0.009,0.006,0.006,0.007,0.003,0.007,0.009,0
403,-0.006,0.008,0.01,0.019,0.019,0.005,0.004,0.008,0.007,0.008,0.01,0.005,0.009,0.008,0.002
404,-0.004,0.011,0.01,0.021,0.016,0.009,0.008,0.009,0.008,0.011,0.014,0.008,0.011,0.005,0.006
405,-0.004,0.011,0.008,0.02,0.013,0.008,0.009,0.008,0.008,0.012,0.015,0.008,0.009,0.002,0.004
406,-0.006,0.009,0.006,0.015,0.011,0.004,0.006,0.008,0.006,0.009,0.013,0.005,0.007,0.001,0
407,-0.006,0.009,0.006,0.015,0.014,0.005,0.004,0.009,0.006,0.009,0.012,0.003,0.006,0.003,-0.001
408,-0.003,0.01,0.006,0.016,0.014,0.006,0.004,0.008,0.007,0.01,0.011,0.004,0.008,0.004,0.003
409,-0.003,0.011,0.006,0.018,0.012,0.008,0.005,0.007,0.007,0.012,0.011,0.006,0.011,0.001,0.007
410,-0.002,0.011,0.006,0.02,0.011,0.009,0.006,0.006,0.008,0.012,0.012,0.008,0.012,-0.001,0.008
411,-0.004,0.01,0.006,0.021,0.011,0.007,0.005,0.005,0.007,0.012,0.012,0.01,0.013,-0.002,0.008
412,-0.004,0.011,0.005,0.023,0.011,0.008,0.007,0.005,0.01,0.012,0.012,0.011,0.012,-0.002,0.008
413,-0.004,0.009,0.004,0.021,0.011,0.007,0.006,0.004,0.008,0.01,0.011,0.009,0.01,0,0.007
414,-0.006,0.007,0.004,0.018,0.012,0.005,0.004,0.005,0.007,0.006,0.008,0.005,0.01,0.002,0.004
415,-0.008,0.005,0.006,0.016,0.014,0.002,0.002,0.006,0.004,0.002,0.005,0.001,0.006,0.004,0.002
416,-0.009,0.005,0.007,0.016,0.016,0.002,0.002,0.006,0.002,0.003,0.005,0.003,0.004,0.004,0
417,-0.009,0.007,0.005,0.017,0.014,0.004,0.005,0.004,0.004,0.005,0.008,0.005,0.004,0.002,0
418,-0.007,0.008,0.004,0.019,0.015,0.006,0.005,0.003,0.006,0.009,0.01,0.007,0.007,0.002,0.001
419,-0.003,0.011,0.006,0.024,0.017,0.01,0.007,0.004,0.008,0.011,0.013,0.009,0.012,0.005,0.005
420,-0.003,0.011,0.007,0.023,0.016,0.008,0.006,0.005,0.007,0.01,0.011,0.008,0.009,0.004,0.005
421,-0.004,0.009,0.007,0.018,0.014,0.006,0.005,0.007,0.005,0.008,0.008,0.007,0.005,0.003,0.004
422,-0.006,0.007,0.006,0.015,0.013,0.005,0.005,0.007,0.005,0.006,0.007,0.005,0.003,0.001,0.003
423,-0.006,0.008,0.006,0.016,0.013,0.005,0.006,0.008,0.007,0.007,0.011,0.007,0.005,0.002,0.003
424,-0.005,0.009,0.006,0.019,0.013,0.008,0.007,0.007,0.009,0.01,0.014,0.009,0.008,0.005,0.005
425,-0.006,0.01,0.006,0.018,0.013,0.008,0.007,0.008,0.009,0.011,0.014,0.008,0.008,0.005,0.004
426,-0.006,0.011,0.007,0.017,0.015,0.008,0.008,0.011,0.009,0.012,0.014,0.009,0.007,0.006,0.006
427,-0.005,0.011,0.008,0.016,0.015,0.009,0.008,0.012,0.01,0.012,0.015,0.009,0.006,0.006,0.006
428,-0.004,0.011,0.007,0.014,0.015,0.008,0.008,0.012,0.009,0.01,0.012,0.008,0.004,0.005,0.006
429,-0.005,0.008,0.006,0.014,0.015,0.006,0.006,0.01,0.007,0.008,0.009,0.005,0.004,0.004,0.004
430,-0.009,0.006,0.005,0.013,0.015,0.003,0.002,0.008,0.006,0.006,0.007,0.002,0.004,0.002,0.001
431,-0.01,0.004,0.006,0.016,0.017,0.002,0.002,0.008,0.006,0.006,0.008,0.004,0.006,0.004,0.002
432,-0.008,0.007,0.006,0.018,0.017,0.003,0.003,0.007,0.007,0.009,0.011,0.006,0.007,0.004,0.004
433,-0.004,0.01,0.007,0.021,0.018,0.006,0.007,0.008,0.009,0.014,0.014,0.008,0.009,0.004,0.009
434,-0.002,0.012,0.007,0.02,0.016,0.008,0.008,0.007,0.01,0.014,0.014,0.008,0.01,0.002,0.009
435,-0.004,0.009,0.006,0.017,0.012,0.007,0.006,0.006,0.008,0.01,0.011,0.006,0.009,-0.001,0.006
436,-0.006,0.007,0.006,0.014,0.011,0.004,0.002,0.007,0.007,0.007,0.009,0.006,0.007,0,0.004
437,-0.008,0.007,0.007,0.014,0.012,0.003,0.001,0.007,0.006,0.005,0.008,0.005,0.008,0.002,0.003
438,-0.008,0.009,0.008,0.015,0.015,0.003,0.003,0.009,0.006,0.007,0.009,0.005,0.008,0.005,0.005
439,-0.009,0.01,0.007,0.015,0.015,0.003,0.005,0.009,0.006,0.006,0.009,0.004,0.006,0.006,0.005
440,-0.008,0.011,0.007,0.016,0.016,0.005,0.006,0.01,0.008,0.008,0.012,0.006,0.006,0.006,0.005
441,-0.005,0.013,0.006,0.017,0.015,0.007,0.007,0.009,0.01,0.01,0.015,0.009,0.011,0.004,0.007
442,-0.002,0.015,0.006,0.02,0.014,0.01,0.009,0.007,0.013,0.012,0.017,0.012,0.014,0.001,0.007
443,0,0.015,0.005,0.021,0.014,0.01,0.009,0.005,0.012,0.012,0.015,0.011,0.013,0.001,0.008
444,-0.001,0.012,0.005,0.02,0.016,0.007,0.007,0.006,0.009,0.01,0.011,0.006,0.011,0.003,0.007
445,-0.004,0.009,0.006,0.017,0.018,0.005,0.005,0.007,0.006,0.008,0.009,0.005,0.008,0.006,0.004
446,-0.007,0.008,0.006,0.013,0.017,0.005,0.005,0.008,0.005,0.006,0.007,0.005,0.005,0.006,0.001
447,-0.007,0.009,0.006,0.011,0.015,0.008,0.006,0.008,0.006,0.007,0.008,0.006,0.003,0.005,0.001
448,-0.005,0.01,0.005,0.013,0.014,0.01,0.006,0.006,0.008,0.009,0.009,0.007,0.003,0.005,0.002
449,-0.003,0.011,0.004,0.015,0.014,0.009,0.007,0.007,0.009,0.011,0.011,0.007,0.006,0.005,0.004
450,-0.004,0.011,0.007,0.016,0.018,0.008,0.007,0.01,0.01,0.013,0.012,0.008,0.007,0.006,0.005
451,-0.006,0.011,0.01,0.015,0.019,0.007,0.006,0.012,0.01,0.012,0.011,0.007,0.007,0.004,0.005
452,-0.007,0.01,0.009,0.011,0.018,0.007,0.005,0.012,0.009,0.009,0.01,0.006,0.003,0.003,0.005
453,-0.004,0.011,0.007,0.013,0.017,0.008,0.007,0.01,0.01,0.008,0.01,0.008,0.005,0.004,0.006
454,-0.001,0.012,0.006,0.016,0.016,0.009,0.008,0.007,0.01,0.009,0.012,0.009,0.009,0.003,0.007
455,-0.001,0.011,0.006,0.019,0.015,0.007,0.006,0.004,0.009,0.01,0.012,0.008,0.013,0.002,0.007
456,-0.004,0.01,0.005,0.013,0.013,0.006,0.004,0.005,0.007,0.009,0.01,0.007,0.008,0,0.005
457,-0.01,0.006,0.001,0.002,0.009,0.002,-0.001,0.004,0.001,0.003,0.006,0.002,-0.003,-0.002,0.001
458,-0.014,0.004,0.001,-0.001,0.009,-0.001,-0.001,0.005,-0.002,0,0.004,0.001,-0.007,-0.001,-0.001
459,-0.013,0.002,0.001,0,0.009,0,0.001,0.006,-0.001,-0.001,0.002,0,-0.006,-0.001,-0.001
460,-0.01,0.003,0.003,0.004,0.011,0.001,0.002,0.007,0.001,0,0.003,0.001,-0.003,0,0
461,-0.007,0.007,0.007,0.008,0.015,0.005,0.005,0.009,0.005,0.004,0.005,0.004,-0.002,0.002,0.002
462,-0.002,0.011,0.011,0.011,0.02,0.009,0.008,0.011,0.008,0.007,0.01,0.008,0.002,0.005,0.005
463,-0.001,0.012,0.01,0.012,0.02,0.01,0.01,0.01,0.01,0.011,0.013,0.011,0.004,0.005,0.006
464,-0.001,0.01,0.006,0.009,0.016,0.009,0.01,0.008,0.01,0.01,0.013,0.01,0.004,0,0.007
465,-0.002,0.01,0.004,0.008,0.011,0.008,0.006,0.006,0.009,0.009,0.011,0.007,0.001,-0.004,0.005
466,-0.002,0.013,0.003,0.01,0.01,0.01,0.006,0.007,0.01,0.012,0.011,0.008,0.005,-0.002,0.005
467,-0.001,0.015,0.004,0.013,0.013,0.012,0.007,0.008,0.01,0.013,0.015,0.01,0.011,0.002,0.008
468,-0.004,0.011,0.003,0.015,0.014,0.008,0.005,0.006,0.009,0.011,0.014,0.01,0.011,0.004,0.006
469,-0.005,0.008,0.002,0.018,0.012,0.004,0.003,0.004,0.006,0.008,0.011,0.007,0.01,0.003,0.005
470,-0.003,0.011,0.002,0.02,0.01,0.005,0.005,0.003,0.008,0.008,0.01,0.006,0.009,0,0.006
471,-0.001,0.013,0.003,0.017,0.01,0.008,0.008,0.006,0.012,0.008,0.012,0.008,0.01,-0.001,0.009
472,-0.002,0.013,0.006,0.013,0.013,0.008,0.007,0.008,0.01,0.008,0.011,0.006,0.008,0,0.006
473,-0.01,0.003,0.004,0.011,0.014,-0.001,-0.002,0.007,0.002,0,0.003,-0.001,0.001,0.001,-0.005
474,-0.017,-0.004,0.001,0.01,0.015,-0.007,-0.009,0.005,-0.005,-0.005,-0.004,-0.006,-0.002,0.002,-0.012
475,-0.018,-0.005,-0.002,0.007,0.012,-0.007,-0.007,0.002,-0.005,-0.005,-0.006,-0.006,-0.002,0,-0.01
476,-0.012,0,0,0.006,0.012,-0.002,-0.002,0.003,0.001,-0.001,0,-0.002,-0.001,-0.002,-0.004
477,-0.007,0.005,0.002,0.006,0.01,0.001,0.003,0.003,0.003,0.002,0.003,0.001,-0.001,-0.004,-0.001
478,-0.006,0.008,0.003,0.005,0.008,0.003,0.002,0.002,0.004,0.004,0.005,0.002,-0.002,-0.007,0
479,-0.006,0.01,0.004,0.006,0.008,0.007,0.004,0.002,0.006,0.008,0.008,0.004,-0.001,-0.007,0.002
480,-0.005,0.009,0.004,0.01,0.007,0.009,0.004,0,0.006,0.008,0.01,0.003,0.003,-0.005,0.003
481,-0.005,0.007,0.005,0.011,0.007,0.007,0.002,0.002,0.003,0.005,0.008,0.001,0.003,-0.002,0
482,-0.01,0.003,0.005,0.008,0.008,0.003,0,0.005,0.001,0.002,0.005,-0.002,0,0.002,-0.003
483,-0.013,0.003,0.003,0.003,0.01,0,-0.001,0.008,0,0.001,0.003,-0.002,-0.002,0.001,-0.004
484,-0.013,0.003,0,0,0.007,-0.001,0,0.007,0.001,0,0.003,0,-0.005,-0.003,-0.003
485,-0.011,0.003,-0.003,0,0.004,-0.001,-0.001,0.001,0,0.001,0.003,0.001,-0.007,-0.009,-0.002
486,-0.009,0.004,-0.002,0,0.007,-0.001,-0.001,0.001,0,0.001,0.003,0.001,-0.006,-0.007,-0.003
487,-0.009,0.004,0.001,0.002,0.013,0.001,-0.002,0.004,0,0.001,0.002,0,-0.005,-0.001,-0.005
488,-0.01,0.004,0.003,0.004,0.015,0.002,-0.003,0.007,0,0.002,0.002,-0.001,-0.003,0.002,-0.005
489,-0.012,0.001,0.002,0.002,0.011,0,-0.005,0.006,-0.001,-0.001,0.001,-0.003,-0.003,-0.001,-0.005
490,-0.013,-0.002,-0.001,-0.002,0.007,-0.005,-0.008,0.003,-0.005,-0.005,-0.001,-0.006,-0.006,-0.006,-0.008
491,-0.014,-0.005,-0.001,-0.006,0.007,-0.009,-0.01,0.002,-0.009,-0.008,-0.004,-0.01,-0.011,-0.005,-0.011
492,-0.014,-0.006,-0.003,-0.007,0.007,-0.008,-0.01,0,-0.01,-0.009,-0.006,-0.01,-0.011,-0.005,-0.012
493,-0.014,-0.004,-0.004,-0.006,0.007,-0.006,-0.007,-0.001,-0.007,-0.006,-0.002,-0.007,-0.008,-0.007,-0.01
494,-0.011,0,-0.003,-0.001,0.006,-0.003,-0.004,-0.001,-0.003,-0.002,0.001,-0.002,-0.003,-0.009,-0.006
495,-0.01,0,-0.005,0.002,0.004,-0.002,-0.005,-0.003,-0.002,-0.002,0.001,0,-0.003,-0.012,-0.005
496,-0.011,-0.002,-0.006,0.003,0.004,-0.004,-0.008,-0.004,-0.005,-0.003,-0.001,-0.003,-0.005,-0.011,-0.006
497,-0.014,-0.006,-0.007,0,0.003,-0.007,-0.011,-0.005,-0.008,-0.007,-0.005,-0.008,-0.009,-0.011,-0.008
498,-0.015,-0.006,-0.007,-0.003,0.001,-0.01,-0.01,-0.004,-0.01,-0.01,-0.007,-0.011,-0.009,-0.012,-0.009
499,-0.014,-0.005,-0.005,-0.004,0,-0.01,-0.01,-0.003,-0.008,-0.009,-0.007,-0.011,-0.009,-0.011,-0.01
500,-0.012,-0.003,-0.002,-0.003,0.003,-0.007,-0.007,-0.002,-0.005,-0.006,-0.004,-0.009,-0.005,-0.009,-0.01
501,-0.01,-0.002,-0.001,-0.003,0.006,-0.006,-0.008,-0.003,-0.005,-0.007,-0.002,-0.007,-0.005,-0.006,-0.012
502,-0.01,-0.003,-0.001,-0.002,0.008,-0.004,-0.006,-0.004,-0.005,-0.007,0,-0.006,-0.005,-0.005,-0.011
503,-0.009,-0.001,-0.003,0.001,0.005,-0.004,-0.004,-0.005,-0.004,-0.005,0,-0.004,-0.002,-0.007,-0.008
504,-0.01,-0.001,-0.004,0.002,0.001,-0.003,-0.004,-0.006,-0.001,-0.003,0,-0.005,-0.002,-0.01,-0.007
505,-0.014,-0.003,-0.005,0,-0.002,-0.005,-0.006,-0.006,-0.001,-0.003,-0.002,-0.006,-0.005,-0.014,-0.009
506,-0.018,-0.007,-0.007,-0.006,-0.006,-0.009,-0.009,-0.007,-0.004,-0.006,-0.004,-0.008,-0.009,-0.017,-0.012
507,-0.019,-0.007,-0.006,-0.008,-0.006,-0.009,-0.01,-0.004,-0.005,-0.006,-0.005,-0.007,-0.011,-0.018,-0.012
508,-0.016,-0.006,-0.003,-0.007,-0.005,-0.007,-0.008,-0.002,-0.006,-0.005,-0.004,-0.008,-0.008,-0.015,-0.01
509,-0.015,-0.005,-0.001,-0.008,-0.003,-0.006,-0.006,-0.004,-0.006,-0.004,-0.004,-0.009,-0.007,-0.014,-0.01
510,-0.017,-0.007,-0.004,-0.01,-0.003,-0.007,-0.008,-0.009,-0.007,-0.005,-0.006,-0.011,-0.008,-0.016,-0.011
511,-0.02,-0.008,-0.008,-0.011,-0.003,-0.01,-0.01,-0.011,-0.01,-0.007,-0.006,-0.011,-0.008,-0.015,-0.013
512,-0.018,-0.007,-0.008,-0.008,-0.003,-0.011,-0.009,-0.006,-0.009,-0.007,-0.005,-0.01,-0.009,-0.013,-0.014
513,-0.014,-0.004,-0.007,-0.005,0,-0.011,-0.008,-0.002,-0.008,-0.009,-0.005,-0.009,-0.008,-0.009,-0.012
514,-0.012,-0.003,-0.006,-0.005,0.001,-0.012,-0.009,-0.002,-0.009,-0.009,-0.007,-0.01,-0.01,-0.011,-0.013
515,-0.014,-0.005,-0.007,-0.008,0,-0.011,-0.011,-0.005,-0.01,-0.011,-0.008,-0.012,-0.012,-0.015,-0.014
516,-0.015,-0.007,-0.009,-0.011,-0.001,-0.009,-0.011,-0.006,-0.011,-0.011,-0.007,-0.011,-0.013,-0.014,-0.015
517,-0.012,-0.004,-0.008,-0.008,-0.004,-0.003,-0.006,-0.005,-0.006,-0.005,-0.002,-0.007,-0.008,-0.014,-0.01
518,-0.01,-0.002,-0.007,-0.005,-0.002,-0.002,-0.002,-0.004,-0.003,-0.002,0,-0.005,-0.005,-0.011,-0.007
519,-0.013,-0.005,-0.009,-0.006,-0.001,-0.007,-0.008,-0.004,-0.007,-0.005,-0.004,-0.008,-0.008,-0.01,-0.01
520,-0.018,-0.01,-0.011,-0.008,0.001,-0.013,-0.014,-0.005,-0.012,-0.011,-0.009,-0.014,-0.013,-0.011,-0.015
521,-0.02,-0.011,-0.012,-0.008,0.001,-0.013,-0.015,-0.007,-0.012,-0.012,-0.01,-0.015,-0.013,-0.013,-0.017
522,-0.016,-0.007,-0.008,-0.005,0.004,-0.008,-0.009,-0.006,-0.005,-0.007,-0.007,-0.01,-0.006,-0.013,-0.011
523,-0.012,-0.004,-0.005,-0.005,0.005,-0.006,-0.003,-0.005,0,-0.004,-0.006,-0.006,-0.003,-0.011,-0.007
524,-0.013,-0.004,-0.004,-0.007,0.005,-0.007,-0.003,-0.005,-0.001,-0.003,-0.005,-0.004,-0.003,-0.009,-0.005
525,-0.015,-0.003,-0.005,-0.008,0.004,-0.009,-0.007,-0.006,-0.004,-0.005,-0.006,-0.005,-0.004,-0.009,-0.008
526,-0.015,-0.003,-0.006,-0.004,0.002,-0.009,-0.008,-0.008,-0.006,-0.005,-0.005,-0.006,-0.002,-0.009,-0.011
527,-0.013,-0.002,-0.006,-0.003,0.002,-0.004,-0.006,-0.007,-0.005,-0.004,-0.003,-0.005,-0.003,-0.009,-0.011
528,-0.012,-0.001,-0.007,-0.005,0.001,-0.001,-0.002,-0.006,-0.003,-0.002,-0.002,-0.004,-0.006,-0.012,-0.009
529,-0.016,-0.006,-0.011,-0.007,-0.001,-0.005,-0.006,-0.007,-0.005,-0.006,-0.006,-0.007,-0.01,-0.016,-0.01
530,-0.019,-0.01,-0.012,-0.01,-0.004,-0.01,-0.012,-0.01,-0.01,-0.01,-0.01,-0.013,-0.012,-0.02,-0.014
531,-0.021,-0.013,-0.013,-0.011,-0.006,-0.013,-0.016,-0.012,-0.014,-0.013,-0.014,-0.016,-0.012,-0.022,-0.018
532,-0.02,-0.011,-0.012,-0.013,-0.007,-0.01,-0.014,-0.012,-0.011,-0.011,-0.01,-0.013,-0.012,-0.024,-0.017
533,-0.02,-0.009,-0.012,-0.013,-0.007,-0.009,-0.01,-0.011,-0.007,-0.009,-0.006,-0.008,-0.012,-0.025,-0.016
534,-0.02,-0.008,-0.012,-0.013,-0.007,-0.01,-0.01,-0.01,-0.006,-0.007,-0.006,-0.007,-0.01,-0.023,-0.016
535,-0.018,-0.006,-0.009,-0.011,-0.002,-0.008,-0.009,-0.009,-0.007,-0.006,-0.005,-0.006,-0.006,-0.019,-0.015
536,-0.017,-0.006,-0.008,-0.011,-0.001,-0.007,-0.008,-0.009,-0.008,-0.005,-0.007,-0.007,-0.005,-0.017,-0.015
537,-0.017,-0.007,-0.01,-0.01,-0.005,-0.008,-0.009,-0.011,-0.01,-0.005,-0.008,-0.009,-0.007,-0.019,-0.015
538,-0.016,-0.007,-0.011,-0.007,-0.008,-0.008,-0.009,-0.013,-0.01,-0.006,-0.008,-0.009,-0.008,-0.022,-0.016
539,-0.016,-0.007,-0.011,-0.005,-0.006,-0.007,-0.009,-0.013,-0.011,-0.007,-0.008,-0.011,-0.009,-0.02,-0.017
540,-0.014,-0.006,-0.007,-0.003,-0.001,-0.006,-0.009,-0.01,-0.01,-0.007,-0.007,-0.011,-0.009,-0.017,-0.016
541,-0.016,-0.008,-0.008,-0.008,-0.002,-0.009,-0.01,-0.01,-0.011,-0.009,-0.009,-0.012,-0.011,-0.017,-0.017
542,-0.019,-0.01,-0.01,-0.012,-0.006,-0.011,-0.012,-0.012,-0.013,-0.01,-0.011,-0.013,-0.014,-0.021,-0.019
543,-0.022,-0.013,-0.013,-0.01,-0.008,-0.012,-0.014,-0.013,-0.014,-0.01,-0.013,-0.013,-0.012,-0.022,-0.021
544,-0.023,-0.016,-0.015,-0.012,-0.007,-0.015,-0.016,-0.014,-0.016,-0.014,-0.016,-0.017,-0.013,-0.022,-0.023
545,-0.024,-0.016,-0.014,-0.011,-0.007,-0.014,-0.015,-0.014,-0.014,-0.014,-0.015,-0.018,-0.011,-0.021,-0.02
546,-0.024,-0.015,-0.012,-0.011,-0.006,-0.014,-0.015,-0.012,-0.013,-0.014,-0.015,-0.017,-0.011,-0.019,-0.017
547,-0.025,-0.017,-0.012,-0.012,-0.007,-0.016,-0.017,-0.013,-0.015,-0.016,-0.016,-0.018,-0.014,-0.019,-0.02
548,-0.026,-0.019,-0.014,-0.015,-0.008,-0.018,-0.018,-0.015,-0.018,-0.019,-0.02,-0.019,-0.015,-0.02,-0.024
549,-0.024,-0.018,-0.016,-0.021,-0.01,-0.018,-0.017,-0.016,-0.02,-0.02,-0.02,-0.02,-0.018,-0.023,-0.025
550,-0.019,-0.014,-0.014,-0.019,-0.01,-0.013,-0.014,-0.015,-0.015,-0.015,-0.017,-0.015,-0.014,-0.022,-0.021
551,-0.018,-0.01,-0.011,-0.02,-0.008,-0.009,-0.013,-0.01,-0.01,-0.01,-0.012,-0.011,-0.013,-0.02,-0.015
552,-0.02,-0.011,-0.011,-0.017,-0.006,-0.01,-0.012,-0.008,-0.009,-0.009,-0.009,-0.011,-0.01,-0.017,-0.015
553,-0.022,-0.014,-0.012,-0.011,-0.004,-0.013,-0.013,-0.009,-0.012,-0.011,-0.011,-0.012,-0.009,-0.015,-0.016
554,-0.022,-0.014,-0.014,-0.008,-0.004,-0.013,-0.016,-0.012,-0.014,-0.012,-0.013,-0.013,-0.009,-0.018,-0.017
555,-0.02,-0.011,-0.013,-0.009,-0.005,-0.011,-0.016,-0.012,-0.013,-0.01,-0.014,-0.012,-0.009,-0.022,-0.015
556,-0.02,-0.009,-0.012,-0.012,-0.007,-0.01,-0.013,-0.011,-0.01,-0.011,-0.014,-0.01,-0.006,-0.022,-0.014
557,-0.018,-0.008,-0.009,-0.008,-0.008,-0.011,-0.01,-0.011,-0.008,-0.011,-0.012,-0.011,-0.004,-0.018,-0.015
558,-0.02,-0.012,-0.012,-0.01,-0.01,-0.013,-0.014,-0.015,-0.012,-0.012,-0.015,-0.016,-0.008,-0.02,-0.017
559,-0.021,-0.013,-0.015,-0.01,-0.012,-0.012,-0.016,-0.017,-0.013,-0.012,-0.011,-0.015,-0.01,-0.023,-0.017
560,-0.018,-0.011,-0.015,-0.006,-0.01,-0.007,-0.014,-0.017,-0.012,-0.007,-0.006,-0.008,-0.005,-0.024,-0.014
561,-0.016,-0.008,-0.016,-0.002,-0.008,-0.005,-0.011,-0.016,-0.009,-0.006,-0.003,-0.004,-0.002,-0.025,-0.013
562,-0.015,-0.007,-0.015,-0.003,-0.007,-0.004,-0.009,-0.014,-0.008,-0.004,-0.004,-0.004,-0.003,-0.024,-0.013
563,-0.018,-0.01,-0.015,-0.01,-0.008,-0.007,-0.011,-0.014,-0.01,-0.008,-0.008,-0.009,-0.008,-0.024,-0.015
564,-0.017,-0.01,-0.011,-0.013,-0.004,-0.01,-0.012,-0.012,-0.009,-0.01,-0.011,-0.01,-0.01,-0.019,-0.017
565,-0.018,-0.011,-0.011,-0.014,0,-0.014,-0.013,-0.011,-0.013,-0.013,-0.014,-0.014,-0.013,-0.016,-0.022
566,-0.021,-0.013,-0.012,-0.011,0,-0.015,-0.015,-0.011,-0.016,-0.013,-0.017,-0.017,-0.015,-0.016,-0.026
567,-0.025,-0.014,-0.015,-0.01,-0.005,-0.015,-0.016,-0.014,-0.018,-0.011,-0.019,-0.019,-0.016,-0.019,-0.025
568,-0.026,-0.013,-0.015,-0.012,-0.009,-0.013,-0.017,-0.016,-0.015,-0.011,-0.017,-0.017,-0.014,-0.023,-0.018
569,-0.024,-0.013,-0.015,-0.014,-0.009,-0.013,-0.018,-0.019,-0.013,-0.013,-0.017,-0.014,-0.013,-0.024,-0.018
570,-0.023,-0.014,-0.014,-0.013,-0.007,-0.014,-0.015,-0.018,-0.013,-0.014,-0.015,-0.013,-0.013,-0.024,-0.017
571,-0.019,-0.012,-0.011,-0.014,-0.006,-0.012,-0.012,-0.014,-0.013,-0.012,-0.013,-0.013,-0.011,-0.023,-0.016
572,-0.019,-0.01,-0.01,-0.013,-0.005,-0.01,-0.007,-0.01,-0.012,-0.006,-0.008,-0.011,-0.01,-0.022,-0.013
573,-0.017,-0.008,-0.01,-0.013,-0.006,-0.009,-0.006,-0.011,-0.008,-0.004,-0.005,-0.009,-0.008,-0.024,-0.012
574,-0.021,-0.011,-0.012,-0.013,-0.007,-0.011,-0.013,-0.013,-0.011,-0.008,-0.01,-0.011,-0.009,-0.026,-0.016
575,-0.024,-0.013,-0.015,-0.016,-0.01,-0.015,-0.017,-0.015,-0.014,-0.014,-0.013,-0.014,-0.013,-0.025,-0.02
576,-0.026,-0.013,-0.016,-0.017,-0.01,-0.014,-0.019,-0.016,-0.016,-0.017,-0.013,-0.016,-0.017,-0.024,-0.022
577,-0.026,-0.012,-0.015,-0.017,-0.008,-0.011,-0.017,-0.014,-0.013,-0.013,-0.012,-0.015,-0.014,-0.023,-0.019
578,-0.024,-0.011,-0.012,-0.014,-0.005,-0.011,-0.016,-0.013,-0.012,-0.01,-0.01,-0.015,-0.01,-0.021,-0.016
579,-0.02,-0.009,-0.01,-0.012,-0.001,-0.01,-0.014,-0.009,-0.011,-0.008,-0.011,-0.012,-0.006,-0.016,-0.014
580,-0.016,-0.007,-0.009,-0.01,-0.001,-0.01,-0.012,-0.009,-0.009,-0.011,-0.012,-0.011,-0.008,-0.015,-0.014
581,-0.016,-0.009,-0.009,-0.007,0.001,-0.011,-0.015,-0.008,-0.01,-0.011,-0.014,-0.016,-0.011,-0.015,-0.014
582,-0.017,-0.01,-0.008,-0.004,0.003,-0.011,-0.016,-0.01,-0.013,-0.009,-0.012,-0.016,-0.006,-0.016,-0.018
583,-0.017,-0.01,-0.009,-0.008,0.001,-0.01,-0.015,-0.011,-0.013,-0.009,-0.005,-0.012,-0.006,-0.015,-0.017
584,-0.017,-0.007,-0.01,-0.011,-0.002,-0.007,-0.009,-0.011,-0.009,-0.005,-0.001,-0.007,-0.002,-0.017,-0.013
585,-0.015,-0.004,-0.008,-0.005,-0.001,-0.003,-0.004,-0.005,-0.004,-0.003,0.001,-0.002,0.002,-0.014,-0.008
586,-0.014,-0.004,-0.006,0.002,0,-0.002,-0.003,-0.004,-0.003,-0.003,-0.002,-0.002,0.006,-0.012,-0.008
587,-0.011,-0.004,-0.005,0.003,0.003,-0.003,-0.004,-0.006,-0.003,-0.005,-0.005,-0.003,0.004,-0.011,-0.011
588,-0.009,-0.001,-0.004,-0.004,0.005,-0.004,-0.005,-0.007,-0.003,-0.003,-0.006,-0.004,0.002,-0.012,-0.011
589,-0.007,0.003,-0.003,-0.006,0.007,0.001,-0.003,-0.005,-0.002,0.004,-0.003,-0.003,0.002,-0.013,-0.006
590,-0.009,0,-0.006,-0.009,0.002,0.001,-0.006,-0.007,-0.005,0.004,-0.002,-0.005,-0.003,-0.012,-0.007
591,-0.014,-0.008,-0.007,-0.011,-0.003,-0.001,-0.01,-0.007,-0.008,-0.004,-0.005,-0.009,-0.011,-0.011,-0.01
592,-0.022,-0.017,-0.01,-0.014,-0.006,-0.01,-0.018,-0.009,-0.016,-0.014,-0.012,-0.016,-0.015,-0.012,-0.016
593,-0.025,-0.017,-0.012,-0.01,-0.008,-0.015,-0.017,-0.011,-0.016,-0.016,-0.013,-0.016,-0.014,-0.018,-0.02
594,-0.022,-0.013,-0.012,-0.009,-0.009,-0.013,-0.013,-0.012,-0.015,-0.013,-0.014,-0.015,-0.011,-0.024,-0.02
595,-0.016,-0.007,-0.007,-0.007,-0.004,-0.005,-0.006,-0.009,-0.008,-0.007,-0.009,-0.008,-0.004,-0.022,-0.013
596,-0.009,0.001,0,0.001,0.004,0.008,0.003,-0.001,0.003,0.002,0.001,0.004,0.007,-0.013,-0.002
597,-0.008,0.003,-0.002,0.009,0.004,0.007,0.003,-0.002,0.004,0.003,0.001,0.004,0.011,-0.007,-0.001
598,-0.01,-0.002,-0.006,0.011,0.002,-0.004,-0.001,-0.007,0,-0.004,-0.004,-0.004,0.008,-0.006,-0.005
599,-0.011,-0.006,-0.008,0.01,-0.002,-0.01,-0.005,-0.009,-0.006,-0.008,-0.008,-0.012,0.002,-0.009,-0.012
600,-0.01,-0.003,-0.006,0.005,-0.006,-0.007,-0.004,-0.008,-0.005,-0.004,-0.004,-0.01,-0.001,-0.017,-0.009
601,-0.009,0.001,-0.006,-0.002,-0.005,0,-0.001,-0.005,-0.004,0.001,-0.002,-0.004,0.001,-0.021,-0.005
602,-0.008,-0.001,-0.004,-0.004,0.002,-0.001,-0.001,-0.004,-0.004,0.002,-0.003,0,0.003,-0.018,-0.003
603,-0.009,-0.006,-0.002,-0.003,0.007,-0.002,-0.003,-0.003,-0.002,0.001,-0.003,0,0.003,-0.011,-0.004
604,-0.007,-0.002,0.001,0.004,0.011,-0.001,-0.003,-0.003,0.001,0.003,0,0.002,0.003,-0.008,-0.004
605,-0.005,0.002,0.001,0.006,0.009,0.005,0.001,-0.002,0.003,0.007,0.003,0.001,0.002,-0.007,-0.003
606,-0.005,0.003,0,0.002,0.007,0.007,0.002,-0.001,0.002,0.006,0.005,0,0.001,-0.006,-0.005
607,-0.008,0,-0.001,-0.005,0.007,0.003,-0.003,-0.003,-0.003,0.001,0,-0.003,0,-0.004,-0.007
608,-0.009,-0.003,-0.002,-0.006,0.005,-0.002,-0.004,-0.005,-0.003,-0.002,0.001,-0.001,-0.001,-0.003,-0.005
609,-0.011,-0.005,-0.004,-0.007,0.004,-0.005,-0.002,-0.005,-0.002,-0.002,0,-0.001,-0.002,-0.003,-0.004
610,-0.009,-0.002,-0.006,-0.008,0.001,-0.002,0,-0.003,-0.003,-0.001,-0.002,0,-0.006,-0.007,-0.001
611,-0.006,0.003,-0.004,-0.004,0.002,-0.001,-0.001,-0.001,-0.001,0.002,-0.002,0,-0.006,-0.01,0.001
612,-0.005,0.004,0.001,0.001,0.004,0.001,-0.001,0.001,0,0.003,-0.001,0.003,-0.002,-0.01,0.003
613,-0.005,0.003,0.005,0.007,0.01,0.002,0.003,0.002,0.002,0.002,0.001,0.001,0.007,-0.004,0.001
614,-0.003,0.002,0.006,0.006,0.017,0.005,0.005,0.002,0.004,0.001,0.004,0,0.014,0,-0.001
615,0.003,0.004,0.006,0.009,0.018,0.007,0.007,0.003,0.007,0.004,0.007,0.001,0.016,0.001,-0.001
616,0.004,0.005,0.003,0.01,0.012,0.009,0.009,0.002,0.007,0.005,0.007,0.004,0.012,-0.004,0.001
617,0.002,0.005,0.003,0.011,0.008,0.011,0.008,0.005,0.006,0.007,0.012,0.008,0.014,-0.003,0.003
618,-0.006,0.002,0.005,0.009,0.012,0.01,0.005,0.009,0.003,0.008,0.013,0.008,0.016,0.003,-0.001
619,-0.008,0,0.008,0.001,0.015,0.006,0.002,0.01,0.001,0.007,0.009,0.006,0.009,0.008,-0.001
620,-0.009,-0.001,0.01,-0.002,0.017,0.001,0.001,0.012,-0.002,0.006,0.003,-0.001,-0.001,0.006,-0.003
621,-0.006,0.002,0.01,0,0.016,0.004,0.004,0.008,0.004,0.009,0.002,-0.001,-0.001,0,-0.001
622,-0.001,0.006,0.008,0.004,0.015,0.01,0.006,0.007,0.008,0.011,0.007,0.004,0.007,-0.002,0.001
623,0.001,0.008,0.008,0.008,0.016,0.014,0.007,0.009,0.012,0.013,0.01,0.008,0.015,0.003,0.002
624,-0.002,0.008,0.008,0.008,0.019,0.011,0.007,0.013,0.009,0.008,0.009,0.007,0.013,0.007,0.002
625,-0.007,0.006,0.009,0.007,0.024,0.008,0.006,0.016,0.004,0.008,0.008,0.004,0.011,0.008,0
626,-0.006,0.009,0.009,0.004,0.02,0.006,0.006,0.015,0.003,0.009,0.007,0.005,0.008,0.005,-0.002
627,-0.004,0.01,0.007,0.001,0.015,0.007,0.005,0.012,0.006,0.011,0.007,0.003,0.006,0.001,-0.002
628,-0.006,0.006,0.005,0.004,0.014,0.005,0.001,0.007,0.005,0.007,0.006,-0.002,0.005,0.002,-0.003
629,-0.01,0.001,0.004,0.006,0.017,0,-0.004,0.003,-0.002,0,0.001,-0.005,0.006,0.005,-0.006
630,-0.012,-0.002,0.005,0.005,0.016,-0.002,-0.003,0.003,-0.001,0,-0.001,-0.004,0.004,0.007,-0.008
631,-0.006,0.002,0.006,0.004,0.014,0.004,0.001,0.005,0.004,0.002,0.001,-0.001,0.008,0.004,-0.005
632,0,0.005,0.005,0.004,0.012,0.007,0.004,0.003,0.009,0.005,0.003,0.005,0.01,-0.002,0
633,0.006,0.007,0.006,0.009,0.013,0.008,0.008,0.001,0.01,0.009,0.009,0.011,0.016,-0.003,0.006
634,0.005,0.01,0.008,0.012,0.016,0.011,0.012,0.001,0.016,0.013,0.012,0.014,0.018,0.001,0.01
635,0.003,0.015,0.008,0.013,0.018,0.013,0.012,0.004,0.018,0.013,0.015,0.015,0.02,0.009,0.011
636,0.002,0.016,0.007,0.02,0.019,0.01,0.011,0.009,0.016,0.012,0.013,0.012,0.021,0.013,0.011
637,0.004,0.016,0.006,0.018,0.016,0.01,0.011,0.009,0.014,0.015,0.012,0.012,0.018,0.009,0.012
638,0.004,0.015,0.005,0.01,0.014,0.009,0.012,0.011,0.014,0.015,0.012,0.011,0.006,0.002,0.013
639,0.004,0.016,0.008,0.002,0.014,0.012,0.014,0.015,0.017,0.015,0.015,0.014,0.004,-0.004,0.01
640,0.007,0.021,0.014,0.005,0.018,0.019,0.019,0.019,0.024,0.017,0.023,0.018,0.011,-0.003,0.01
641,0.014,0.027,0.017,0.016,0.019,0.025,0.021,0.016,0.03,0.023,0.031,0.025,0.023,0.004,0.015
642,0.017,0.028,0.014,0.028,0.019,0.024,0.021,0.01,0.026,0.024,0.029,0.025,0.026,0.009,0.018
643,0.014,0.021,0.01,0.036,0.014,0.018,0.017,0.006,0.019,0.025,0.025,0.021,0.026,0.009,0.018
644,0.008,0.015,0.006,0.034,0.01,0.014,0.012,0.003,0.012,0.018,0.018,0.013,0.022,0.005,0.013
645,0.001,0.01,0.005,0.023,0.01,0.015,0.008,0.006,0.01,0.01,0.016,0.008,0.019,0.001,0.009
646,-0.008,0.004,0.006,0.009,0.014,0.008,0.001,0.011,0.006,0.001,0.008,0.002,0.008,0.002,0.001
647,-0.009,0.002,0.007,0.005,0.017,0.004,0,0.016,0.008,0.003,0.005,0.003,0.002,0.003,0.001
648,-0.004,0.007,0.009,0.011,0.019,0.006,0.006,0.02,0.012,0.012,0.01,0.007,0.006,0.004,0.005
649,0.001,0.014,0.012,0.02,0.019,0.016,0.013,0.021,0.013,0.018,0.018,0.014,0.011,0.006,0.008
650,-0.001,0.015,0.011,0.02,0.017,0.019,0.012,0.018,0.013,0.019,0.019,0.014,0.014,0.003,0.004
651,-0.003,0.011,0.009,0.015,0.011,0.015,0.01,0.01,0.009,0.013,0.019,0.011,0.011,-0.001,0.002
652,-0.001,0.008,0.008,0.015,0.011,0.013,0.009,0.006,0.006,0.011,0.015,0.008,0.008,0,0.002
653,-0.002,0.006,0.007,0.011,0.015,0.007,0.005,0.002,0.002,0.006,0.009,0.005,0.005,0,-0.003
654,-0.003,0.003,0.003,0.012,0.018,0.003,0.001,0.001,0.001,0.004,0.002,0.001,0.005,0.001,-0.005
655,-0.005,0,0,0.009,0.018,0.001,-0.002,0.001,0,0.002,0.001,0.001,0.005,-0.001,-0.004
656,-0.008,0,0,0.002,0.016,0.001,-0.002,0.002,0,0,0.004,0,0,0,-0.005
657,-0.007,0.001,0.002,-0.005,0.016,0,-0.005,0.004,0.001,-0.002,0.004,-0.001,-0.007,0.002,-0.006
658,-0.009,0,0.006,-0.003,0.018,-0.003,-0.01,0.006,-0.001,-0.006,-0.002,-0.002,-0.008,0.005,-0.008
659,-0.008,0,0.008,0.002,0.024,0,-0.01,0.009,-0.003,-0.003,-0.003,-0.003,-0.003,0.01,-0.005
660,-0.009,0.004,0.009,0.007,0.028,0.007,-0.004,0.012,-0.003,0.004,0.002,0.002,0.001,0.014,-0.002
661,0,0.011,0.007,0.011,0.029,0.018,0.008,0.012,0.008,0.016,0.015,0.012,0.01,0.017,0.007
662,0.012,0.019,0.009,0.016,0.028,0.029,0.018,0.012,0.018,0.024,0.024,0.022,0.017,0.014,0.011
663,0.018,0.021,0.011,0.02,0.023,0.029,0.021,0.01,0.021,0.024,0.027,0.023,0.018,0.006,0.011
664,0.012,0.019,0.01,0.012,0.021,0.021,0.016,0.01,0.013,0.017,0.019,0.018,0.014,0.004,0.006
665,0,0.012,0.007,0.005,0.021,0.013,0.009,0.01,0.006,0.011,0.007,0.012,0.01,0.009,0
666,-0.004,0.011,0.006,0.004,0.023,0.014,0.009,0.013,0.006,0.011,0.004,0.012,0.012,0.015,0.003
667,-0.003,0.009,0.008,0.012,0.021,0.013,0.011,0.013,0.01,0.013,0.009,0.01,0.016,0.015,0.008
668,-0.003,0.006,0.006,0.018,0.018,0.007,0.008,0.007,0.008,0.003,0.011,0.005,0.017,0.01,0.009
669,-0.006,0.006,0.003,0.014,0.015,0.002,0.003,0.005,0.003,0.001,0.01,-0.001,0.016,0.009,0.004
670,-0.003,0.012,0.002,0.012,0.014,0.007,0.004,0.005,0.007,0.003,0.011,0.004,0.013,0.008,0.006
671,0.002,0.012,0.004,0.014,0.013,0.014,0.009,0.008,0.011,0.008,0.016,0.01,0.009,0.011,0.008
672,0.004,0.01,0.003,0.014,0.014,0.014,0.006,0.008,0.008,0.01,0.015,0.011,0.007,0.011,0.003
673,0.001,0.007,0.003,0.007,0.014,0.008,0.004,0.006,0.001,0.008,0.006,0.005,0.003,0.009,-0.002
674,-0.004,0.006,0.001,0.001,0.013,0.006,0.002,0.004,-0.002,0.002,0,0,0.001,0.007,-0.008
675,-0.008,0.003,0.001,0.002,0.013,0.004,0.003,0.006,-0.001,-0.001,-0.001,-0.002,0,0.006,-0.009
676,-0.01,0.002,0.001,0.009,0.014,0.004,0.005,0.01,0,-0.002,0,-0.001,0.002,0.005,-0.007
677,-0.007,0.004,0.002,0.009,0.012,0.006,0.007,0.01,0.001,0.002,0.003,0.001,0.005,0.001,-0.003
678,0.002,0.009,0.003,0.004,0.011,0.011,0.01,0.008,0.007,0.009,0.009,0.006,0.006,0,0.002
679,0.01,0.016,0.007,0,0.014,0.013,0.011,0.011,0.015,0.016,0.018,0.013,0.005,0.004,0.006
680,0.011,0.018,0.011,0,0.018,0.014,0.012,0.015,0.018,0.018,0.021,0.017,0.006,0.01,0.006
681,0.007,0.014,0.012,-0.005,0.02,0.015,0.013,0.015,0.017,0.014,0.015,0.013,0.007,0.012,0.005
682,0.007,0.012,0.012,-0.003,0.021,0.014,0.014,0.013,0.015,0.01,0.011,0.011,0.007,0.014,0.008
683,0.006,0.011,0.01,-0.001,0.019,0.011,0.01,0.013,0.012,0.006,0.004,0.01,0.004,0.009,0.006
684,-0.001,0.005,0.005,-0.003,0.011,0.005,0.003,0.011,0.005,-0.001,0.001,0.005,-0.002,-0.001,0
685,-0.011,-0.005,-0.001,-0.007,0.006,-0.003,-0.002,0.005,0,-0.002,-0.001,-0.001,0.001,-0.01,-0.006
686,-0.012,-0.007,0,-0.006,0.009,-0.003,-0.002,0.002,0.001,-0.002,0.002,-0.002,0.003,-0.008,-0.005
687,-0.008,-0.005,0.002,0,0.013,-0.001,-0.002,0.001,0,-0.005,0.002,-0.002,0.003,-0.005,-0.007
688,-0.004,0,0.003,0.005,0.015,0.003,0,0.003,0.002,-0.004,0.004,0.002,0.003,0.001,-0.003
689,0,0.007,0.005,0.013,0.014,0.009,0.007,0.004,0.006,0.004,0.009,0.007,0.011,0.001,0.001
690,0.007,0.017,0.006,0.016,0.013,0.017,0.011,0.004,0.012,0.013,0.016,0.012,0.016,-0.003,0.005
691,0.015,0.024,0.011,0.019,0.013,0.021,0.013,0.007,0.016,0.015,0.018,0.014,0.018,-0.006,0.01
692,0.014,0.022,0.011,0.014,0.009,0.02,0.013,0.01,0.016,0.014,0.018,0.015,0.014,-0.007,0.012
693,0.009,0.019,0.009,0.007,0.006,0.02,0.015,0.01,0.02,0.016,0.015,0.016,0.012,-0.003,0.018
694,0.006,0.02,0.006,0.005,0.003,0.021,0.018,0.006,0.022,0.019,0.012,0.019,0.014,-0.003,0.018
695,0.011,0.024,0.006,0,0.001,0.023,0.019,0.003,0.023,0.019,0.01,0.016,0.012,-0.007,0.011
696,0.015,0.021,0.006,-0.006,0.002,0.023,0.017,0.004,0.018,0.017,0.011,0.013,0.008,-0.01,0.006
697,0.014,0.012,0.004,-0.007,0.003,0.013,0.008,0.003,0.011,0.008,0.005,0.007,0.004,-0.011,0.001
698,0.006,0.006,0,-0.002,0.004,0.007,0.002,0.001,0.006,0.001,0,0.004,0.004,-0.009,-0.002
699,-0.002,0.005,-0.003,0.004,0.007,0.001,0,-0.002,0.004,-0.005,-0.004,0.003,0.001,-0.003,-0.005
700,-0.005,0.007,-0.003,0.01,0.011,0.002,0.002,-0.004,0.002,-0.002,-0.003,0.002,0.002,0.004,-0.005
701,-0.007,0.004,0,0.013,0.013,-0.002,0.003,-0.001,0,0,-0.004,0.001,0.004,0.006,-0.002
702,-0.001,0.004,0.003,0.016,0.013,0.002,0.005,0.004,0,0.003,0.003,0.007,0.007,0.002,-0.001
703,0.006,0.005,0.004,0.015,0.009,0.005,0.009,0.005,0.007,0.003,0.007,0.011,0.011,-0.001,0.001
704,0.012,0.005,0.004,0.016,0.008,0.006,0.01,0.002,0.01,0.005,0.011,0.009,0.014,-0.001,0.002
705,0.002,0,0.001,0.012,0.01,-0.001,-0.001,0.002,0.004,0.001,0.005,0,0.008,0.002,0
706,-0.011,-0.001,-0.001,-0.003,0.011,-0.006,-0.005,0.004,-0.004,-0.002,0,-0.004,-0.003,0.002,-0.006
707,-0.013,0.002,-0.001,-0.013,0.011,-0.002,-0.002,0.007,-0.002,0.001,0.002,-0.005,-0.005,0,-0.006
708,-0.006,0.008,0.003,-0.012,0.011,0.008,0.008,0.011,0.007,0.008,0.007,0.002,-0.001,0.005,-0.001
709,0.001,0.013,0.006,-0.004,0.011,0.016,0.013,0.013,0.01,0.014,0.005,0.006,0.003,0.007,0.004
710,0.005,0.016,0.007,-0.003,0.014,0.016,0.008,0.015,0.01,0.017,0.002,0.007,0.001,0.009,0.001
711,0.003,0.012,0.004,0.002,0.014,0.013,0.003,0.013,0.011,0.007,0,0.003,0.002,0.003,-0.004
712,0.001,0.008,0.003,0.009,0.012,0.008,0.005,0.009,0.015,0.001,0.001,0.004,0.004,0.002,-0.003
713,0.003,0.007,0.004,0.015,0.011,0.007,0.01,0.006,0.013,0.002,0.003,0.006,0.008,-0.001,0.003
714,0.004,0.007,0.004,0.01,0.012,0.005,0.009,0.004,0.01,0.007,0.005,0.009,0.008,0.002,0.004
715,-0.001,0.009,0.002,0.004,0.016,0.006,0.003,0.004,0.006,0.007,0.004,0.007,0.006,0.004,0.002
716,-0.002,0.007,0.001,0.001,0.016,0.005,-0.005,0.007,0.003,0.007,0.006,0.003,0.004,0.007,-0.003
717,-0.004,0.004,0.002,-0.003,0.018,-0.002,-0.006,0.009,-0.001,0.004,0.002,-0.003,0,0.008,-0.01
718,-0.008,-0.001,-0.001,-0.008,0.017,-0.01,-0.008,0.005,-0.004,-0.003,-0.005,-0.009,-0.004,0.006,-0.012
719,-0.012,-0.005,-0.004,-0.013,0.016,-0.009,-0.008,0.003,-0.01,-0.009,-0.013,-0.01,-0.003,0.007,-0.007
720,-0.01,-0.007,-0.002,-0.012,0.018,-0.004,-0.005,0.004,-0.009,-0.004,-0.011,-0.009,0.002,0.006,-0.001
721,-0.007,-0.002,0.001,-0.003,0.015,0.001,-0.002,0.005,-0.004,0.002,-0.004,-0.003,0.006,0.003,-0.002
722,-0.003,0.001,0.002,0.003,0.011,0.004,0.003,0.006,0.004,0.005,0.001,0.001,0.007,0.002,-0.003
723,0.002,0.003,0.004,-0.001,0.009,0.003,0.006,0.006,0.007,0.005,0.001,0.005,0.004,0.001,-0.002
724,0.004,0.004,0.006,-0.004,0.008,0.006,0.01,0.006,0.009,0.004,0.006,0.003,0.001,-0.002,0.002
725,0.004,0.005,0.004,0.002,0.006,0.007,0.007,0.006,0.009,0.003,0.006,0,-0.002,-0.003,0.003
726,0.003,0.002,0.001,0.007,0.008,0.006,0.001,0.006,0.004,0.001,0.005,-0.003,0.003,-0.001,0.002
727,0,0.001,-0.001,0.007,0.011,0.003,-0.003,0.005,-0.001,-0.001,0.005,0.001,0.009,0.002,0.003
728,0.002,0.006,-0.001,0.002,0.011,0.001,0,0.005,-0.004,0.002,0.002,0.002,0.013,0,-0.001
729,-0.001,0.008,0,0.002,0.011,0.002,0.004,0.003,-0.001,-0.002,-0.004,-0.002,0.012,-0.002,-0.007
730,-0.005,0.003,-0.001,-0.001,0.009,0.002,0.001,0.001,0.002,-0.004,-0.006,-0.004,0.006,-0.005,-0.009
731,-0.009,-0.008,-0.001,-0.003,0.003,-0.002,-0.006,0,-0.001,-0.006,-0.008,-0.006,-0.006,-0.003,-0.01
732,-0.012,-0.009,0,-0.016,0.002,-0.002,-0.006,0.006,-0.005,-0.001,-0.007,-0.006,-0.013,-0.003,-0.012
733,-0.008,-0.002,0,-0.022,0.004,0.003,0.002,0.012,-0.004,0.002,-0.006,-0.004,-0.018,-0.001,-0.011
734,-0.007,0.01,0.002,-0.018,0.011,0.008,0.008,0.015,0.002,0.004,0,0,-0.012,0.002,-0.002
735,-0.003,0.013,0.002,-0.012,0.015,0.009,0.007,0.01,0.003,0.005,0,-0.002,-0.007,0.003,-0.001
736,0.001,0.009,-0.001,-0.003,0.016,0.006,0.007,0.003,0.004,0.003,0,-0.003,0.003,0.003,-0.002
737,0.001,0.005,-0.004,0,0.014,0.006,0.008,0,0.006,0.001,0.001,-0.002,0.003,0.007,-0.002
738,0,0.004,-0.001,0.002,0.013,0.005,0.007,0.005,0.008,0,0.005,0.001,0.002,0.01,0.003
739,-0.003,-0.001,0.001,-0.002,0.015,0.005,0.003,0.005,0.005,0.002,0.001,-0.001,0.001,0.007,0
740,-0.008,-0.003,0.001,-0.007,0.013,-0.005,-0.002,0.002,-0.001,-0.006,-0.006,-0.005,0.003,-0.003,-0.01
741,-0.011,-0.002,0,-0.015,0.008,-0.007,-0.003,0,-0.004,-0.01,-0.008,-0.007,-0.001,-0.013,-0.016
742,-0.003,0.003,0.004,-0.018,0.011,-0.002,0,0.003,-0.002,-0.003,-0.003,0,-0.002,-0.015,-0.012
743,0.002,0.004,0.005,-0.017,0.012,0.005,0.005,0.001,0.008,0.007,0.003,0.006,0,-0.01,-0.003
744,-0.002,0.003,0.002,-0.012,0.009,0.001,0.006,-0.002,0.007,0.004,0.003,0.006,0.004,-0.006,-0.002
745,-0.003,-0.001,-0.003,-0.006,0.004,-0.004,0.002,-0.007,0.004,-0.004,0,-0.002,0.006,-0.004,-0.005
746,0.005,-0.001,-0.003,-0.001,0.005,-0.003,-0.003,-0.004,0.003,-0.009,0.001,-0.003,0.009,-0.007,-0.007
747,0.007,0.004,-0.001,0.006,0.007,0.005,-0.002,0,0.006,-0.002,0.006,0,0.006,-0.007,-0.003
748,0.002,0.003,-0.001,0.005,0.004,0.005,-0.001,0.001,0,-0.001,0.005,0,0,-0.007,-0.003
749,0.001,-0.002,0,-0.001,0.002,-0.002,-0.001,0.001,-0.002,-0.002,0,-0.003,0,-0.003,0
750,0,0,0,0,0,0,0,0,0,0,0,0,0,0,0
751,0,0.005,0,0.002,0.005,0.001,0.003,0,0.001,-0.001,0.001,-0.002,0,-0.002,-0.001
752,0.001,0.002,-0.001,-0.001,0.009,-0.001,0.002,-0.001,-0.004,-0.006,-0.004,-0.005,-0.001,-0.006,-0.005
753,0.002,0.005,-0.001,-0.007,0.011,-0.005,-0.001,-0.001,-0.003,-0.004,-0.005,-0.007,-0.002,-0.007,-0.006
754,-0.002,0.009,0.002,-0.005,0.009,0.002,-0.003,0.002,0.001,0.004,-0.002,-0.005,-0.003,-0.007,-0.005
755,0.004,0.012,0.006,0.001,0.009,0.008,-0.003,0.008,0.004,0.007,0.001,-0.005,-0.005,-0.003,-0.006
756,0.005,0.006,0.007,0.001,0.012,0.007,-0.002,0.014,0.008,0.006,0.001,0,-0.005,0.003,-0.003
757,-0.001,-0.001,0.004,-0.008,0.016,0.002,0.002,0.013,0.007,0.002,-0.002,-0.003,-0.002,0.006,-0.003
758,-0.004,-0.004,0.001,-0.012,0.016,-0.001,0,0.009,0.001,-0.006,-0.004,-0.009,0.002,0.003,-0.003
759,-0.001,0,0.003,-0.012,0.018,0,-0.005,0.009,-0.001,-0.007,0.001,-0.008,0.003,0.003,-0.007
760,0.002,-0.001,0.001,-0.008,0.018,0.001,-0.004,0.01,0.003,0,0.001,0.001,0.004,0.004,-0.009
761,0.005,0.001,0.001,-0.009,0.015,0.004,-0.003,0.011,0.001,0.008,0.002,0.002,0,0.003,-0.009
762,0.006,0,0.001,-0.011,0.011,0.005,-0.002,0.01,0,0.005,0.005,0.001,-0.003,-0.004,-0.005
763,0.005,0.004,0.004,-0.006,0.007,0.003,0.002,0.009,0.002,0.004,0.01,0.002,-0.001,-0.007,-0.003
764,0,0.004,0.003,-0.001,0.008,0,0.006,0.008,0.007,0.003,0.007,0.005,0.006,-0.004,0.001
765,-0.001,0.007,0.003,0,0.006,0.003,0.004,0.005,0.008,0.006,0.006,0.004,0.008,-0.006,-0.001
766,-0.002,0.003,-0.001,0.002,0.003,0.006,0.001,0.001,0.007,0.009,0.005,-0.001,0.009,-0.008,-0.003
767,-0.006,0.006,-0.002,0.012,0.004,0.013,0.003,0.002,0.007,0.01,0.006,-0.001,0.009,-0.007,-0.003
768,-0.006,0.007,0.001,0.019,0.007,0.015,0.006,0.008,0.012,0.006,0.009,0.003,0.008,-0.003,0.002
769,-0.004,0.005,0.004,0.013,0.004,0.009,0.006,0.011,0.011,0,0.008,0.008,0.004,-0.004,0.006
770,-0.004,0.002,0.002,0.003,-0.002,0,0.006,0.007,0.002,-0.003,0.003,0.005,-0.001,-0.01,0.005
771,-0.001,0.004,0.002,-0.003,0,-0.002,0.007,-0.003,-0.002,0.002,0.002,0.001,-0.001,-0.013,0.002
772,0.004,0.004,-0.001,-0.002,0.007,0.006,0.006,-0.01,0,0.007,0.002,0,-0.003,-0.012,-0.001
773,0.006,0.008,-0.004,-0.005,0.009,0.011,0.009,-0.007,0.004,0.009,0,0.004,0.001,-0.008,-0.001
774,-0.002,0.011,-0.009,0.002,0.006,0.011,0.009,-0.008,0.004,0.004,-0.004,0.001,0.002,-0.01,-0.002
775,-0.008,0.01,-0.008,-0.003,0.005,0.007,0.003,-0.008,0.006,0.011,0.001,0.004,0.005,-0.01,-0.003
776,-0.005,0.009,-0.001,0.001,0.007,0.01,-0.002,-0.004,0.006,0.005,0.015,0.012,0.009,-0.006,-0.001
777,-0.004,0.003,-0.001,0.001,0.008,0.004,-0.004,0.001,0.002,0.003,0.012,0.007,0.001,-0.001,-0.002
778,-0.005,0,-0.001,0.01,0.008,-0.003,-0.004,0.006,0.003,-0.002,0.012,0.001,0.007,0,0.003
779,-0.006,-0.002,0,0.001,0.011,0,-0.001,0.007,0.004,0.002,0.001,-0.004,0.01,0.001,0.002
780,-0.011,0.003,0.006,-0.002,0.017,0.006,0.003,0.01,0.008,0.001,0.004,0,0.012,0.004,0.003
781,-0.015,0.005,0.006,0.002,0.023,0.006,0.005,0.01,0.006,0.007,0.001,-0.001,0.011,0.007,-0.003
782,-0.016,-0.003,0.004,-0.001,0.023,0.001,-0.003,0.006,-0.004,0,0.002,0.003,0.011,0.001,-0.013
783,-0.014,-0.012,0,-0.011,0.017,-0.006,-0.015,0.002,-0.013,-0.017,-0.005,-0.004,-0.003,-0.004,-0.025
784,-0.009,-0.011,0,-0.012,0.015,-0.01,-0.016,0.003,-0.018,-0.028,-0.013,-0.008,-0.015,0,-0.028
785,-0.011,-0.009,-0.001,-0.008,0.013,-0.021,-0.017,0.003,-0.021,-0.025,-0.013,-0.014,-0.026,0.003,-0.023
786,-0.017,-0.009,-0.002,-0.017,0.008,-0.023,-0.019,-0.005,-0.018,-0.022,-0.012,-0.014,-0.021,-0.005,-0.025
787,-0.016,-0.004,-0.002,-0.021,0,-0.019,-0.018,-0.006,-0.004,-0.011,-0.006,-0.022,-0.015,-0.014,-0.024
788,-0.003,0.011,0.004,-0.011,0,-0.002,-0.004,-0.004,0.007,0.009,0.004,-0.01,0.004,-0.005,-0.011
789,0.004,0.009,0,-0.003,-0.003,0.001,0.001,-0.004,0.007,0.015,0.005,-0.005,0.007,0.002,0
790,0,0.004,-0.003,-0.004,0.002,0.002,0.002,-0.004,0.006,0.018,0.004,0.001,0.018,0.006,0.001
791,0.002,0.002,-0.005,-0.008,0.012,0,0.002,0.004,0.005,0.016,-0.001,-0.01,0.009,0.008,0.001
792,0.001,0.004,-0.001,-0.01,0.021,0.001,-0.002,0.011,0.006,0.004,-0.001,-0.006,0,0.008,0.003
793,0.011,0.001,0.003,0.002,0.021,0.003,-0.004,0.012,0.011,-0.002,-0.003,0.001,0,0.003,0.001
794,0.011,-0.006,0.008,0.012,0.019,0.007,-0.002,0.012,0.008,0.003,0.007,0.007,0.008,0,-0.001
795,0.004,0.002,0.007,0.011,0.017,0.011,0.003,0.014,0.007,0.008,0.013,0.004,0.014,0.002,0.001
796,0.004,0.008,0.007,0.005,0.014,0.012,0.005,0.015,0.008,0.01,0.009,0.005,0.015,0.002,0.003
797,0.01,0.02,0.004,0.004,0.009,0.018,0.014,0.015,0.018,0.011,0.004,0.009,0.01,0.004,0.006
798,0.013,0.014,0.001,0.015,0.008,0.018,0.02,0.011,0.02,0.01,0.009,0.006,0.002,0.005,0.005
799,0.001,0.013,0.003,0.014,0.009,0.016,0.015,0.009,0.024,0.012,0.009,0.009,-0.001,0,0.006
800,0,0.001,0.007,0.005,0.013,0.011,0.004,0.005,0.018,0.013,0.001,0.009,-0.002,0,0.004
801,-0.005,0.002,0.008,-0.011,0.014,0.01,-0.003,0.003,0.012,0.003,0.001,0.006,0.005,0.003,0.002
802,-0.007,-0.005,0.006,-0.013,0.019,-0.001,0.001,0.002,0.001,-0.006,0.001,-0.005,0.005,0.004,-0.012
803,-0.007,-0.003,0.005,-0.014,0.016,-0.002,0,0.008,0.001,-0.008,-0.001,-0.007,0.005,0.005,-0.015
804,0.001,0.003,0.01,-0.01,0.019,0.006,0.007,0.016,0,-0.002,0.004,-0.001,-0.001,0.011,-0.013
805,0.012,0.016,0.007,-0.001,0.018,0.011,0.015,0.016,0.002,0.001,0.008,0.009,0.01,0.011,-0.001
806,0.01,0.016,0,0.024,0.023,0.012,0.02,0.006,0.003,0.017,0.005,0.009,0.01,0.009,0.005
807,0.005,0.009,-0.005,0.027,0.018,0.022,0.01,-0.003,0.015,0.026,0.011,0.016,0.011,-0.002,0.004
808,0.001,0.011,0.002,0.016,0.019,0.026,0.007,0.006,0.014,0.024,0.013,0.02,0.004,0.001,0
809,-0.008,0.005,0.002,0.003,0.019,0.012,-0.004,0.011,0.003,0.002,0.007,0.011,0.003,0.005,-0.004
810,-0.016,-0.007,-0.002,-0.014,0.016,0.006,-0.009,0.011,-0.001,-0.015,-0.022,-0.014,-0.004,0.01,-0.015
811,-0.016,-0.008,-0.005,-0.034,0.004,-0.006,-0.011,0.008,-0.004,-0.02,-0.027,-0.021,-0.007,0.009,-0.02
812,-0.013,-0.001,-0.001,-0.028,0.005,-0.009,-0.01,0.009,-0.012,-0.007,-0.028,-0.021,-0.005,0.012,-0.018
813,-0.009,-0.001,0.003,0.006,0.015,-0.017,-0.01,0.007,-0.009,0.003,-0.016,-0.01,0.002,0.017,-0.013
814,-0.011,-0.009,0.001,0.013,0.018,-0.02,-0.024,-0.003,-0.01,-0.01,-0.019,-0.017,-0.002,0.008,-0.013
815,-0.006,-0.006,-0.002,-0.018,0.015,-0.023,-0.03,-0.004,-0.01,-0.008,-0.021,-0.016,0.001,-0.003,-0.012
816,-0.001,0,-0.005,-0.024,0.01,-0.009,-0.014,-0.004,-0.013,-0.008,-0.011,-0.016,0.002,-0.011,-0.016
817,0,0.006,-0.003,-0.011,0.008,0.003,0.002,0.002,0,-0.003,-0.005,-0.002,0.006,-0.002,-0.012
818,-0.007,0.001,-0.002,0.001,0.016,0.007,-0.003,0.002,0.002,-0.002,0.007,0,0.008,0.01,0.011
819,-0.011,0.001,-0.002,-0.005,0.024,0.005,-0.009,0.007,0.01,0.008,-0.002,0.008,0.026,0.01,0.012
820,-0.005,0.003,-0.002,0.001,0.023,0.006,-0.001,0.007,0.014,0.002,-0.001,0.01,0.026,0.004,0.008
821,0.002,0.007,0.002,0.002,0.016,0.009,0.008,0.008,0.021,0.002,-0.006,0.01,0.018,0.003,0.001
822,0.008,0.011,0.01,-0.005,0.016,0.01,0.008,0.011,0.014,0.004,0.004,0.003,0.005,0.009,0.009
823,0.008,0.017,0.015,-0.013,0.023,0.013,0.009,0.019,0.01,0.009,0.004,0.003,0.001,0.013,0.007
824,0.006,0.015,0.012,-0.007,0.023,0.018,0.01,0.019,0.009,0.013,0.004,0.002,-0.001,0.012,0.007
825,0.001,0.007,0.004,-0.007,0.014,0.014,0.006,0.008,0.006,0.01,-0.002,0.001,-0.003,0.002,-0.002
826,-0.002,-0.001,-0.007,-0.014,0.001,0.004,-0.001,-0.006,-0.001,0.002,-0.008,-0.005,-0.007,-0.01,-0.007
827,0.011,0.011,-0.006,-0.008,-0.001,0.011,0.006,-0.005,0.008,0.011,0.007,0.007,0.005,-0.013,0.002
828,0.025,0.028,-0.003,-0.004,0.006,0.024,0.021,0.003,0.017,0.03,0.029,0.022,0.017,-0.008,0.015
829,0.02,0.027,-0.003,-0.002,0.008,0.033,0.024,0.002,0.013,0.026,0.029,0.021,0.014,-0.007,0.011
830,0.002,0.01,-0.01,-0.014,0.002,0.017,0.003,-0.009,-0.004,0.003,0.001,-0.005,0,-0.012,-0.006
831,-0.011,-0.002,-0.012,-0.019,-0.008,-0.008,-0.012,-0.016,-0.017,-0.013,-0.018,-0.018,-0.005,-0.017,-0.015
832,-0.011,-0.002,-0.006,-0.02,0,-0.012,-0.002,-0.01,-0.012,-0.013,-0.011,-0.008,-0.002,-0.009,-0.007
833,-0.007,0,0.005,-0.013,0.013,0.005,0.014,-0.001,0.001,-0.004,0.008,0.006,0.004,0,0.001
834,-0.001,0.008,0.011,0,0.025,0.017,0.014,0.008,0.012,0.009,0.009,0.006,0.01,0.011,0.003
835,-0.002,0.012,0.009,-0.002,0.025,0.009,0.007,0.012,0.005,0.015,0.003,0.003,0.007,0.01,0.001
836,0.002,0.01,0.002,0,0.014,0.006,0.006,0.007,0.001,0.009,-0.006,0.008,-0.003,0.005,-0.004
837,-0.003,-0.005,-0.003,-0.005,-0.001,0.008,0.001,-0.004,-0.001,0.001,-0.007,-0.004,-0.018,-0.012,-0.014
838,-0.006,-0.01,-0.006,-0.012,-0.005,0.009,-0.003,-0.006,-0.001,-0.002,-0.002,-0.011,-0.024,-0.008,-0.019
839,-0.01,-0.008,-0.006,-0.004,0.004,-0.002,-0.006,-0.005,-0.002,-0.011,-0.002,-0.016,-0.011,0.002,-0.012
840,-0.005,0.003,-0.003,0.012,0.013,-0.018,-0.007,-0.004,-0.012,-0.011,-0.006,-0.011,-0.001,0.017,-0.016
