,0,0,0,1,1,1,2,2,2,3,3,3,4,4,4,5,5,5,6,6,6,7,7,7
220,0.763,0.688,0.725,0.435,-0.131,0.418,-0.122,-0.08,-0.289,-0.415,-0.38,-0.241,0.524,0.497,0.416,0.183,0.204,0.156,1.057,1.002,1.031,0.727,0.614,0.033
221,0.752,0.675,0.708,0.43,-0.13,0.412,0.09,0.094,-0.009,-0.007,0.079,0.036,0.571,0.542,0.459,0.206,0.229,0.184,1.025,0.997,1.002,0.812,0.676,0.031
222,0.772,0.694,0.734,0.446,-0.129,0.428,0.206,0.169,0.239,0.266,0.206,0.181,0.619,0.591,0.503,0.226,0.249,0.206,1.013,0.993,0.984,0.886,0.739,0.026
223,0.829,0.736,0.781,0.476,-0.124,0.46,0.175,0.135,0.17,0.169,0.163,0.172,0.677,0.645,0.546,0.244,0.268,0.226,1.042,1.044,1.033,0.976,0.857,0.023
224,0.893,0.784,0.841,0.517,-0.123,0.499,0.179,0.146,0.187,0.182,0.188,0.185,0.738,0.701,0.593,0.266,0.29,0.25,1.073,1.076,1.081,1.04,0.963,0.022
225,0.967,0.851,0.91,0.561,-0.124,0.543,0.198,0.175,0.191,0.201,0.203,0.204,0.795,0.758,0.64,0.288,0.314,0.278,1.103,1.101,1.09,1.09,1.05,0.021
226,1.041,0.927,0.993,0.614,-0.124,0.594,0.207,0.185,0.171,0.311,0.269,0.303,0.854,0.817,0.691,0.312,0.341,0.309,1.158,1.156,1.108,1.115,1.108,0.02
227,1.129,1.034,1.095,0.675,-0.127,0.651,0.26,0.236,0.226,0.584,0.495,0.563,0.922,0.887,0.748,0.336,0.369,0.341,1.242,1.226,1.172,1.098,1.124,0.019
228,1.255,1.148,1.216,0.745,-0.131,0.718,0.508,0.495,0.517,0.94,0.863,0.955,0.998,0.964,0.808,0.361,0.397,0.373,1.359,1.346,1.282,1.082,1.13,0.017
229,1.37,1.251,1.326,0.813,-0.131,0.783,0.885,0.881,0.937,1.145,1.14,1.206,1.069,1.032,0.865,0.385,0.424,0.403,1.468,1.445,1.381,1.05,1.113,0.015
230,1.445,1.321,1.406,0.873,-0.131,0.846,1.223,1.199,1.253,1.076,1.143,1.174,1.125,1.088,0.913,0.406,0.448,0.429,1.515,1.497,1.44,1.041,1.102,0.015
231,1.435,1.322,1.418,0.929,-0.129,0.901,1.305,1.248,1.28,0.809,0.904,0.913,1.156,1.124,0.947,0.426,0.469,0.454,1.474,1.467,1.421,1.045,1.102,0.015
232,1.348,1.29,1.371,0.973,-0.128,0.951,1.128,1.052,1.058,0.561,0.634,0.641,1.175,1.147,0.974,0.445,0.491,0.48,1.364,1.339,1.369,1.06,1.108,0.016
233,1.261,1.262,1.312,1.021,-0.128,1.004,0.923,0.843,0.838,0.423,0.479,0.484,1.2,1.18,1.0,0.468,0.515,0.504,1.281,1.241,1.274,1.095,1.129,0.016
234,1.201,1.258,1.283,1.07,-0.127,1.052,0.77,0.701,0.699,0.352,0.399,0.4,1.23,1.208,1.028,0.491,0.54,0.531,1.196,1.16,1.187,1.127,1.156,0.015
235,1.179,1.225,1.272,1.121,-0.127,1.093,0.69,0.626,0.626,0.314,0.356,0.355,1.265,1.237,1.057,0.513,0.564,0.562,1.132,1.11,1.174,1.167,1.178,0.015
236,1.142,1.165,1.238,1.158,-0.127,1.129,0.656,0.595,0.596,0.298,0.337,0.338,1.283,1.265,1.084,0.531,0.585,0.587,1.045,1.052,1.121,1.189,1.203,0.016
237,1.048,1.109,1.169,1.187,-0.128,1.159,0.646,0.584,0.585,0.294,0.332,0.333,1.291,1.281,1.097,0.546,0.603,0.607,0.95,0.946,1.04,1.211,1.218,0.017
238,0.969,1.064,1.101,1.209,-0.13,1.187,0.649,0.586,0.588,0.294,0.334,0.335,1.284,1.29,1.105,0.561,0.618,0.62,0.868,0.848,0.921,1.223,1.221,0.017
239,0.915,1.039,1.059,1.231,-0.127,1.208,0.658,0.595,0.594,0.297,0.339,0.339,1.291,1.3,1.13,0.576,0.632,0.635,0.819,0.781,0.843,1.228,1.225,0.016
240,0.911,1.016,1.042,1.277,-0.126,1.245,0.668,0.605,0.605,0.301,0.345,0.346,1.326,1.322,1.16,0.59,0.648,0.655,0.817,0.758,0.848,1.264,1.247,0.016
241,0.957,1.051,1.081,1.328,-0.127,1.306,0.684,0.618,0.62,0.306,0.352,0.353,1.389,1.377,1.213,0.605,0.666,0.676,0.853,0.806,0.87,1.326,1.31,0.015
242,1.036,1.146,1.148,1.399,-0.129,1.375,0.707,0.638,0.639,0.316,0.362,0.363,1.461,1.444,1.258,0.618,0.682,0.697,0.922,0.888,0.978,1.41,1.399,0.016
243,1.087,1.18,1.205,1.429,-0.129,1.41,0.728,0.656,0.659,0.326,0.374,0.374,1.494,1.467,1.274,0.626,0.691,0.712,0.933,0.913,1.008,1.444,1.443,0.016
244,1.057,1.145,1.181,1.418,-0.127,1.394,0.741,0.669,0.673,0.334,0.383,0.383,1.471,1.454,1.266,0.626,0.691,0.716,0.877,0.863,0.983,1.423,1.407,0.017
245,1.001,1.064,1.111,1.4,-0.127,1.376,0.749,0.676,0.681,0.338,0.388,0.389,1.443,1.425,1.24,0.622,0.685,0.708,0.826,0.815,0.917,1.389,1.358,0.017
246,0.98,1.102,1.136,1.418,-0.127,1.401,0.76,0.685,0.69,0.342,0.392,0.394,1.456,1.437,1.246,0.617,0.68,0.697,0.874,0.844,0.928,1.41,1.389,0.016
247,1.059,1.195,1.223,1.461,-0.126,1.449,0.776,0.699,0.702,0.347,0.399,0.401,1.489,1.478,1.267,0.612,0.676,0.691,0.993,0.945,1.01,1.466,1.47,0.016
248,1.109,1.213,1.278,1.484,-0.125,1.467,0.794,0.716,0.719,0.355,0.408,0.411,1.499,1.479,1.263,0.6,0.665,0.681,1.046,0.987,1.051,1.489,1.514,0.017
249,1.083,1.159,1.231,1.452,-0.124,1.427,0.804,0.725,0.729,0.36,0.416,0.417,1.44,1.428,1.216,0.58,0.644,0.661,1.001,0.928,1.014,1.45,1.458,0.017
250,1.018,1.065,1.128,1.372,-0.124,1.346,0.802,0.722,0.729,0.36,0.419,0.418,1.346,1.337,1.141,0.552,0.613,0.628,0.92,0.87,0.951,1.364,1.356,0.017
251,0.995,1.088,1.12,1.313,-0.123,1.284,0.8,0.721,0.728,0.36,0.418,0.418,1.269,1.267,1.076,0.52,0.579,0.588,0.953,0.893,0.987,1.312,1.303,0.016
252,1.053,1.155,1.167,1.256,-0.123,1.237,0.807,0.727,0.732,0.364,0.422,0.424,1.202,1.206,1.017,0.485,0.54,0.549,1.037,1.001,1.06,1.28,1.283,0.015
253,1.113,1.199,1.209,1.199,-0.122,1.183,0.824,0.742,0.747,0.374,0.431,0.434,1.123,1.133,0.944,0.442,0.494,0.502,1.113,1.097,1.146,1.236,1.251,0.015
254,1.137,1.198,1.206,1.134,-0.12,1.117,0.834,0.752,0.757,0.382,0.438,0.441,1.018,1.031,0.851,0.395,0.442,0.447,1.148,1.131,1.179,1.176,1.19,0.014
255,1.136,1.158,1.177,1.061,-0.117,1.044,0.823,0.742,0.747,0.377,0.433,0.434,0.89,0.91,0.744,0.343,0.384,0.386,1.156,1.146,1.158,1.094,1.111,0.013
256,1.152,1.147,1.196,1.023,-0.115,0.995,0.802,0.724,0.73,0.366,0.422,0.423,0.769,0.795,0.639,0.291,0.328,0.326,1.206,1.184,1.19,1.034,1.061,0.013
257,1.197,1.174,1.236,0.992,-0.115,0.967,0.792,0.716,0.72,0.36,0.416,0.419,0.658,0.685,0.543,0.245,0.278,0.273,1.26,1.241,1.203,0.99,1.032,0.012
258,1.257,1.222,1.289,0.958,-0.116,0.932,0.815,0.739,0.742,0.372,0.428,0.432,0.551,0.579,0.454,0.203,0.231,0.22,1.293,1.28,1.214,0.945,0.995,0.011
259,1.307,1.253,1.318,0.906,-0.117,0.877,0.871,0.79,0.795,0.397,0.455,0.461,0.455,0.481,0.375,0.166,0.19,0.175,1.286,1.273,1.204,0.893,0.941,0.009
260,1.308,1.217,1.28,0.818,-0.116,0.794,0.912,0.827,0.833,0.414,0.475,0.479,0.376,0.399,0.309,0.136,0.157,0.142,1.207,1.202,1.124,0.812,0.858,0.008
261,1.198,1.089,1.156,0.703,-0.114,0.68,0.9,0.817,0.821,0.408,0.467,0.472,0.313,0.334,0.258,0.113,0.13,0.116,1.06,1.062,1.006,0.703,0.745,0.007
262,1.005,0.898,0.962,0.57,-0.111,0.552,0.845,0.766,0.769,0.383,0.438,0.441,0.266,0.283,0.22,0.097,0.112,0.095,0.878,0.882,0.853,0.578,0.614,0.006
263,0.795,0.701,0.751,0.442,-0.109,0.426,0.776,0.706,0.706,0.353,0.405,0.407,0.23,0.244,0.19,0.086,0.098,0.076,0.697,0.7,0.705,0.456,0.487,0.006
264,0.607,0.535,0.573,0.334,-0.109,0.321,0.73,0.662,0.663,0.332,0.381,0.383,0.204,0.214,0.168,0.077,0.088,0.065,0.553,0.554,0.582,0.357,0.382,0.005
265,0.466,0.409,0.437,0.252,-0.109,0.243,0.713,0.645,0.647,0.324,0.373,0.374,0.186,0.193,0.153,0.072,0.081,0.06,0.447,0.446,0.49,0.286,0.307,0.005
266,0.361,0.316,0.337,0.194,-0.109,0.189,0.699,0.633,0.635,0.317,0.364,0.367,0.175,0.179,0.144,0.067,0.075,0.056,0.371,0.369,0.425,0.234,0.253,0.004
267,0.29,0.252,0.271,0.154,-0.108,0.152,0.661,0.599,0.6,0.299,0.343,0.346,0.17,0.172,0.139,0.064,0.072,0.053,0.321,0.319,0.381,0.198,0.216,0.004
268,0.244,0.211,0.226,0.129,-0.106,0.129,0.594,0.54,0.539,0.269,0.309,0.311,0.169,0.17,0.14,0.064,0.072,0.052,0.289,0.287,0.353,0.172,0.189,0.004
269,0.212,0.183,0.197,0.113,-0.104,0.113,0.528,0.482,0.479,0.24,0.275,0.277,0.171,0.17,0.142,0.065,0.073,0.054,0.268,0.267,0.333,0.154,0.168,0.005
270,0.193,0.167,0.179,0.104,-0.102,0.102,0.478,0.435,0.432,0.216,0.248,0.251,0.174,0.172,0.144,0.067,0.074,0.056,0.259,0.258,0.322,0.143,0.156,0.005
271,0.186,0.161,0.172,0.1,-0.103,0.097,0.419,0.382,0.379,0.189,0.217,0.219,0.176,0.173,0.145,0.067,0.074,0.057,0.257,0.255,0.319,0.138,0.148,0.004
272,0.187,0.162,0.172,0.099,-0.104,0.096,0.326,0.297,0.293,0.146,0.168,0.17,0.179,0.175,0.145,0.067,0.074,0.058,0.258,0.255,0.32,0.132,0.142,0.004
273,0.188,0.163,0.175,0.1,-0.104,0.097,0.223,0.203,0.198,0.098,0.115,0.117,0.18,0.177,0.146,0.067,0.074,0.058,0.259,0.256,0.321,0.126,0.136,0.003
274,0.186,0.161,0.174,0.099,-0.103,0.097,0.154,0.141,0.133,0.066,0.08,0.08,0.182,0.179,0.149,0.068,0.075,0.059,0.26,0.255,0.319,0.119,0.132,0.002
275,0.177,0.153,0.167,0.095,-0.103,0.093,0.117,0.106,0.098,0.049,0.061,0.06,0.184,0.179,0.15,0.069,0.075,0.059,0.258,0.253,0.316,0.113,0.126,0.001
276,0.167,0.144,0.156,0.09,-0.103,0.087,0.096,0.088,0.08,0.041,0.05,0.05,0.186,0.182,0.152,0.069,0.076,0.06,0.254,0.249,0.313,0.108,0.12,0.002
277,0.158,0.135,0.146,0.085,-0.102,0.082,0.08,0.075,0.068,0.035,0.042,0.042,0.189,0.185,0.154,0.07,0.077,0.063,0.251,0.247,0.311,0.104,0.115,0.002
278,0.155,0.132,0.144,0.083,-0.101,0.08,0.069,0.064,0.058,0.029,0.036,0.036,0.193,0.189,0.158,0.072,0.08,0.064,0.253,0.248,0.312,0.103,0.114,0.002
279,0.161,0.138,0.151,0.086,-0.1,0.084,0.061,0.057,0.05,0.025,0.032,0.032,0.196,0.192,0.16,0.073,0.081,0.066,0.259,0.254,0.317,0.105,0.118,0.002
280,0.172,0.149,0.162,0.091,-0.099,0.09,0.055,0.051,0.044,0.021,0.029,0.028,0.196,0.193,0.16,0.073,0.081,0.067,0.268,0.263,0.325,0.11,0.123,0.001
281,0.184,0.16,0.173,0.097,-0.097,0.095,0.051,0.048,0.041,0.021,0.028,0.027,0.195,0.192,0.159,0.072,0.08,0.065,0.276,0.271,0.33,0.116,0.128,0.002
282,0.187,0.162,0.174,0.099,-0.096,0.096,0.049,0.047,0.04,0.022,0.027,0.026,0.19,0.188,0.155,0.071,0.079,0.066,0.277,0.272,0.33,0.118,0.129,0.004
283,0.173,0.151,0.161,0.092,-0.095,0.09,0.047,0.045,0.038,0.021,0.026,0.025,0.182,0.179,0.149,0.069,0.076,0.061,0.265,0.26,0.318,0.113,0.121,0.004
284,0.149,0.129,0.137,0.077,-0.094,0.077,0.045,0.043,0.036,0.019,0.025,0.023,0.173,0.171,0.141,0.065,0.072,0.057,0.243,0.24,0.301,0.1,0.108,0.003
285,0.121,0.103,0.11,0.061,-0.092,0.063,0.043,0.041,0.034,0.017,0.024,0.021,0.164,0.163,0.134,0.061,0.068,0.053,0.221,0.217,0.281,0.085,0.092,0.002
286,0.101,0.085,0.09,0.051,-0.089,0.052,0.042,0.04,0.032,0.016,0.023,0.02,0.157,0.156,0.128,0.06,0.066,0.05,0.205,0.201,0.266,0.075,0.082,0.003
287,0.091,0.075,0.08,0.046,-0.087,0.047,0.039,0.038,0.03,0.016,0.023,0.019,0.153,0.151,0.124,0.058,0.065,0.05,0.196,0.192,0.259,0.069,0.076,0.002
288,0.092,0.078,0.084,0.048,-0.088,0.049,0.037,0.035,0.028,0.015,0.021,0.017,0.149,0.146,0.121,0.056,0.063,0.048,0.194,0.191,0.258,0.07,0.077,0.002
289,0.109,0.095,0.101,0.058,-0.089,0.057,0.033,0.032,0.025,0.014,0.019,0.015,0.143,0.141,0.117,0.054,0.06,0.044,0.2,0.196,0.262,0.077,0.085,0.001
290,0.127,0.112,0.119,0.069,-0.089,0.067,0.031,0.03,0.023,0.014,0.017,0.015,0.136,0.135,0.111,0.052,0.057,0.04,0.205,0.202,0.264,0.085,0.092,0.002
291,0.129,0.114,0.119,0.07,-0.088,0.067,0.029,0.028,0.021,0.013,0.016,0.015,0.126,0.126,0.104,0.05,0.054,0.037,0.198,0.194,0.254,0.084,0.09,0.003
292,0.104,0.09,0.094,0.054,-0.087,0.054,0.025,0.024,0.017,0.011,0.013,0.012,0.112,0.113,0.093,0.045,0.049,0.033,0.17,0.165,0.227,0.067,0.073,0.001
293,0.065,0.055,0.057,0.031,-0.087,0.034,0.021,0.021,0.013,0.008,0.01,0.009,0.097,0.098,0.08,0.038,0.042,0.029,0.13,0.125,0.193,0.045,0.05,0.0
294,0.034,0.027,0.03,0.015,-0.086,0.017,0.017,0.017,0.01,0.005,0.008,0.006,0.081,0.082,0.067,0.031,0.035,0.021,0.095,0.09,0.163,0.028,0.032,-0.001
295,0.019,0.013,0.016,0.008,-0.084,0.01,0.015,0.015,0.008,0.004,0.007,0.006,0.068,0.068,0.055,0.026,0.03,0.013,0.071,0.066,0.143,0.018,0.022,-0.001
296,0.013,0.009,0.011,0.007,-0.082,0.008,0.014,0.015,0.007,0.005,0.008,0.007,0.056,0.057,0.046,0.023,0.026,0.007,0.056,0.051,0.128,0.013,0.017,0.0
297,0.01,0.007,0.008,0.007,-0.081,0.008,0.013,0.014,0.006,0.004,0.007,0.007,0.046,0.047,0.039,0.02,0.022,0.002,0.045,0.04,0.115,0.01,0.014,0.001
298,0.007,0.005,0.006,0.005,-0.08,0.007,0.011,0.013,0.004,0.003,0.006,0.006,0.037,0.038,0.032,0.017,0.019,-0.001,0.035,0.03,0.106,0.008,0.011,0.001
299,0.007,0.005,0.006,0.004,-0.078,0.007,0.011,0.012,0.004,0.004,0.007,0.005,0.031,0.032,0.026,0.015,0.016,-0.003,0.028,0.024,0.1,0.007,0.01,0.002
300,0.008,0.004,0.006,0.005,-0.077,0.007,0.011,0.012,0.005,0.004,0.007,0.004,0.025,0.025,0.021,0.013,0.014,-0.007,0.022,0.019,0.095,0.006,0.008,0.001
301,0.007,0.003,0.004,0.003,-0.079,0.005,0.009,0.011,0.004,0.002,0.006,0.003,0.02,0.02,0.017,0.011,0.011,-0.008,0.017,0.014,0.088,0.004,0.006,-0.001
302,0.005,0.002,0.003,0.002,-0.079,0.004,0.008,0.009,0.002,0.001,0.005,0.002,0.016,0.015,0.013,0.009,0.008,-0.009,0.014,0.009,0.083,0.002,0.004,-0.002
303,0.003,0.001,0.002,0.001,-0.079,0.004,0.006,0.008,0.0,0.0,0.004,-0.001,0.013,0.011,0.01,0.007,0.006,-0.011,0.011,0.005,0.082,0.0,0.003,-0.003
304,0.002,0.001,0.003,0.001,-0.077,0.005,0.006,0.008,0.0,-0.001,0.003,-0.001,0.011,0.01,0.009,0.007,0.006,-0.013,0.009,0.004,0.083,0.0,0.003,-0.002
305,0.003,0.001,0.003,0.001,-0.075,0.006,0.007,0.008,0.0,-0.001,0.004,0.0,0.011,0.009,0.009,0.007,0.007,-0.015,0.008,0.004,0.083,0.0,0.003,-0.001
306,0.004,0.001,0.004,0.001,-0.074,0.006,0.008,0.009,0.001,0.0,0.004,0.001,0.01,0.009,0.01,0.007,0.008,-0.014,0.008,0.004,0.081,-0.001,0.003,-0.001
307,0.004,0.001,0.004,0.001,-0.071,0.006,0.009,0.01,0.001,0.0,0.005,0.002,0.01,0.009,0.01,0.008,0.008,-0.012,0.008,0.003,0.08,-0.001,0.003,-0.001
308,0.005,0.002,0.004,0.002,-0.069,0.006,0.009,0.01,0.002,0.001,0.005,0.003,0.011,0.009,0.009,0.008,0.008,-0.014,0.009,0.003,0.078,0.0,0.003,0.0
309,0.004,0.001,0.003,0.001,-0.067,0.005,0.008,0.009,0.0,0.0,0.005,0.002,0.01,0.008,0.008,0.007,0.007,-0.014,0.008,0.002,0.076,0.002,0.002,-0.001
310,0.004,0.001,0.003,0.001,-0.068,0.005,0.007,0.008,-0.001,0.0,0.005,0.002,0.009,0.007,0.008,0.007,0.007,-0.015,0.007,0.003,0.075,0.002,0.003,0.0
311,0.003,0.001,0.002,0.0,-0.07,0.004,0.006,0.007,-0.001,-0.001,0.004,0.002,0.008,0.006,0.007,0.006,0.006,-0.016,0.006,0.002,0.073,0.001,0.002,-0.001
312,0.001,0.0,0.002,-0.002,-0.069,0.003,0.005,0.007,-0.002,-0.002,0.003,0.001,0.007,0.005,0.006,0.005,0.005,-0.017,0.005,0.001,0.074,-0.001,0.002,-0.002
313,0.0,-0.001,0.001,-0.002,-0.069,0.003,0.005,0.007,-0.002,-0.002,0.003,0.0,0.007,0.005,0.006,0.005,0.004,-0.019,0.004,0.001,0.073,-0.002,0.001,-0.003
314,-0.001,-0.002,0.001,-0.002,-0.068,0.002,0.005,0.006,-0.003,-0.003,0.001,-0.002,0.006,0.004,0.005,0.005,0.004,-0.019,0.004,0.0,0.071,-0.002,0.0,-0.004
315,0.001,-0.002,0.001,-0.002,-0.067,0.002,0.005,0.006,-0.002,-0.002,0.001,-0.002,0.006,0.003,0.005,0.004,0.003,-0.02,0.004,-0.001,0.07,-0.002,0.0,-0.003
316,0.001,-0.002,0.001,-0.001,-0.065,0.002,0.006,0.007,-0.001,-0.002,0.002,0.0,0.007,0.004,0.006,0.005,0.005,-0.02,0.005,0.0,0.07,-0.001,0.0,-0.003
317,0.001,-0.001,0.001,-0.001,-0.064,0.003,0.007,0.007,0.0,-0.001,0.003,0.0,0.007,0.005,0.006,0.006,0.005,-0.021,0.005,0.001,0.071,-0.001,0.001,-0.003
318,0.001,0.001,0.001,0.0,-0.064,0.004,0.007,0.008,0.001,-0.001,0.004,0.001,0.007,0.005,0.006,0.006,0.006,-0.018,0.004,0.002,0.069,-0.001,0.001,-0.003
319,0.001,0.001,0.001,0.0,-0.063,0.004,0.006,0.008,0.0,-0.002,0.003,0.001,0.007,0.006,0.007,0.006,0.005,-0.014,0.005,0.002,0.069,-0.001,0.001,-0.003
320,0.001,0.0,0.0,-0.001,-0.06,0.003,0.005,0.006,-0.002,-0.003,0.002,0.0,0.007,0.004,0.006,0.004,0.004,-0.013,0.004,0.001,0.067,-0.002,0.0,-0.003
321,0.0,-0.001,0.0,-0.002,-0.059,0.002,0.003,0.005,-0.003,-0.004,0.001,-0.001,0.007,0.004,0.005,0.004,0.003,-0.017,0.004,0.0,0.067,-0.002,-0.001,-0.003
322,-0.001,-0.003,-0.001,-0.003,-0.059,0.001,0.003,0.004,-0.004,-0.004,0.001,-0.002,0.005,0.004,0.004,0.003,0.002,-0.021,0.003,-0.001,0.067,-0.003,-0.001,-0.004
323,-0.002,-0.003,-0.002,-0.004,-0.061,0.0,0.002,0.003,-0.005,-0.005,0.0,-0.002,0.004,0.003,0.003,0.002,0.001,-0.023,0.002,-0.001,0.065,-0.004,-0.002,-0.005
324,-0.002,-0.003,-0.002,-0.005,-0.061,0.001,0.001,0.003,-0.004,-0.005,0.0,-0.003,0.004,0.002,0.003,0.002,0.001,-0.022,0.002,-0.002,0.065,-0.004,-0.002,-0.005
325,-0.002,-0.003,-0.002,-0.005,-0.058,0.001,0.002,0.003,-0.004,-0.006,0.0,-0.005,0.004,0.002,0.003,0.002,0.002,-0.02,0.001,-0.002,0.064,-0.004,-0.002,-0.005
326,-0.002,-0.002,-0.001,-0.004,-0.054,0.002,0.002,0.003,-0.005,-0.006,0.0,-0.005,0.004,0.002,0.005,0.003,0.002,-0.02,0.002,-0.002,0.063,-0.004,-0.002,-0.004
327,-0.002,-0.002,-0.001,-0.004,-0.053,0.001,0.003,0.003,-0.005,-0.006,0.0,-0.004,0.004,0.003,0.005,0.003,0.003,-0.02,0.003,-0.002,0.061,-0.003,-0.002,-0.004
328,-0.002,-0.002,-0.002,-0.003,-0.055,0.002,0.003,0.004,-0.004,-0.005,0.001,-0.002,0.005,0.003,0.005,0.003,0.002,-0.018,0.003,-0.001,0.061,-0.003,-0.001,-0.004
329,-0.002,-0.003,-0.003,-0.003,-0.055,0.001,0.001,0.003,-0.004,-0.004,0.0,-0.001,0.004,0.002,0.004,0.001,0.001,-0.022,0.002,-0.002,0.06,-0.003,-0.002,-0.004
330,-0.002,-0.003,-0.003,-0.002,-0.053,0.0,0.001,0.002,-0.003,-0.004,-0.001,-0.002,0.003,0.001,0.002,0.0,0.001,-0.025,0.001,-0.002,0.059,-0.004,-0.002,-0.005
331,-0.002,-0.003,-0.003,-0.002,-0.049,0.0,0.001,0.002,-0.004,-0.005,-0.002,-0.003,0.003,0.001,0.002,0.0,0.001,-0.03,0.001,-0.002,0.056,-0.004,-0.002,-0.006
332,-0.002,-0.004,-0.003,-0.004,-0.052,0.0,0.001,0.002,-0.005,-0.005,-0.001,-0.005,0.003,0.001,0.003,0.001,0.001,-0.023,0.001,-0.002,0.057,-0.004,-0.002,-0.005
333,-0.002,-0.003,-0.002,-0.005,-0.057,0.001,0.002,0.003,-0.005,-0.005,0.0,-0.005,0.004,0.002,0.004,0.002,0.002,-0.014,0.002,-0.003,0.062,-0.004,-0.002,-0.004
334,-0.002,-0.002,-0.001,-0.005,-0.056,0.002,0.002,0.004,-0.005,-0.005,0.0,-0.004,0.005,0.002,0.003,0.003,0.002,-0.013,0.002,-0.003,0.061,-0.005,-0.003,-0.004
335,-0.002,-0.003,-0.002,-0.007,-0.049,0.0,0.0,0.002,-0.006,-0.006,-0.001,-0.005,0.003,0.0,0.002,0.001,0.001,-0.019,0.001,-0.003,0.058,-0.005,-0.005,-0.006
336,-0.003,-0.004,-0.003,-0.006,-0.044,-0.001,-0.001,0.001,-0.007,-0.008,-0.002,-0.006,0.001,-0.001,0.0,-0.001,0.0,-0.029,-0.001,-0.003,0.055,-0.006,-0.005,-0.007
337,-0.003,-0.005,-0.004,-0.006,-0.046,-0.002,-0.002,-0.001,-0.008,-0.008,-0.003,-0.007,0.0,-0.002,0.0,-0.001,-0.002,-0.03,-0.001,-0.004,0.054,-0.006,-0.005,-0.008
338,-0.003,-0.005,-0.004,-0.005,-0.051,-0.001,-0.001,0.0,-0.007,-0.007,-0.002,-0.007,0.001,-0.002,0.0,-0.001,-0.001,-0.024,-0.001,-0.004,0.056,-0.006,-0.005,-0.007
339,-0.003,-0.005,-0.002,-0.004,-0.051,0.0,0.0,0.0,-0.006,-0.006,-0.002,-0.006,0.001,-0.001,0.001,0.0,0.0,-0.022,0.0,-0.003,0.055,-0.006,-0.004,-0.006
340,-0.005,-0.005,-0.002,-0.006,-0.05,-0.001,0.0,0.0,-0.007,-0.007,-0.002,-0.006,0.001,-0.001,0.001,0.0,0.0,-0.021,0.0,-0.002,0.055,-0.006,-0.004,-0.005
341,-0.005,-0.005,-0.003,-0.007,-0.048,-0.001,-0.001,0.0,-0.008,-0.008,-0.002,-0.006,0.001,-0.002,0.001,0.0,0.0,-0.021,-0.001,-0.003,0.054,-0.005,-0.003,-0.006
342,-0.004,-0.004,-0.003,-0.006,-0.047,-0.001,-0.001,0.001,-0.008,-0.007,-0.003,-0.006,0.002,-0.001,0.001,0.0,0.0,-0.023,0.0,-0.002,0.053,-0.004,-0.003,-0.006
343,-0.003,-0.003,-0.003,-0.005,-0.046,-0.001,-0.001,0.001,-0.007,-0.006,-0.002,-0.006,0.002,-0.001,0.001,0.0,0.0,-0.023,0.0,-0.002,0.053,-0.004,-0.003,-0.006
344,-0.002,-0.002,-0.002,-0.004,-0.049,0.0,0.0,0.002,-0.006,-0.004,-0.002,-0.004,0.003,0.0,0.001,0.001,0.0,-0.023,0.001,-0.003,0.053,-0.003,-0.003,-0.006
345,-0.003,-0.003,-0.003,-0.004,-0.05,0.0,-0.001,0.001,-0.006,-0.005,-0.002,-0.004,0.001,0.0,0.001,0.001,0.0,-0.023,0.0,-0.004,0.051,-0.004,-0.004,-0.006
346,-0.004,-0.004,-0.003,-0.005,-0.047,-0.001,-0.001,0.001,-0.007,-0.007,-0.003,-0.005,0.0,-0.001,0.001,0.0,-0.001,-0.023,-0.001,-0.005,0.05,-0.005,-0.005,-0.006
347,-0.005,-0.005,-0.004,-0.007,-0.045,-0.002,-0.002,0.0,-0.009,-0.009,-0.003,-0.007,-0.001,-0.002,0.0,0.0,-0.002,-0.023,-0.002,-0.005,0.05,-0.007,-0.005,-0.006
348,-0.003,-0.004,-0.004,-0.008,-0.045,-0.002,-0.002,-0.001,-0.009,-0.009,-0.003,-0.007,-0.001,-0.003,-0.001,-0.001,-0.002,-0.023,-0.003,-0.005,0.049,-0.007,-0.005,-0.006
349,-0.002,-0.003,-0.003,-0.008,-0.047,-0.001,-0.001,0.0,-0.008,-0.007,-0.003,-0.007,0.0,-0.002,0.0,0.0,-0.001,-0.021,-0.003,-0.004,0.05,-0.006,-0.004,-0.006
350,-0.003,-0.004,-0.003,-0.007,-0.046,-0.001,-0.002,0.0,-0.007,-0.007,-0.002,-0.006,0.0,-0.002,0.0,0.0,0.0,-0.019,-0.002,-0.004,0.05,-0.005,-0.004,-0.006
351,-0.003,-0.005,-0.002,-0.005,-0.047,-0.001,-0.001,0.0,-0.007,-0.007,-0.003,-0.006,0.0,-0.002,0.001,-0.001,0.0,-0.016,-0.002,-0.004,0.052,-0.005,-0.004,-0.006
352,-0.004,-0.004,-0.003,-0.004,-0.048,-0.001,-0.001,0.001,-0.007,-0.007,-0.002,-0.005,0.0,-0.002,0.001,0.0,-0.001,-0.014,-0.002,-0.004,0.054,-0.006,-0.004,-0.006
353,-0.003,-0.004,-0.003,-0.004,-0.049,-0.001,0.0,0.0,-0.007,-0.008,-0.003,-0.005,0.001,-0.002,0.0,-0.001,-0.001,-0.015,-0.002,-0.005,0.054,-0.007,-0.004,-0.006
354,-0.003,-0.003,-0.002,-0.005,-0.046,0.0,0.001,0.001,-0.007,-0.007,-0.002,-0.005,0.002,-0.001,0.001,0.0,-0.001,-0.015,-0.001,-0.004,0.055,-0.006,-0.003,-0.005
355,-0.004,-0.003,-0.002,-0.006,-0.045,0.0,0.0,0.001,-0.007,-0.007,-0.002,-0.005,0.002,-0.002,0.001,0.0,0.0,-0.016,-0.001,-0.005,0.054,-0.006,-0.003,-0.005
356,-0.003,-0.003,-0.002,-0.005,-0.045,0.0,0.001,0.002,-0.006,-0.006,-0.001,-0.005,0.002,-0.001,0.001,0.0,0.0,-0.014,-0.001,-0.005,0.054,-0.005,-0.003,-0.004
357,-0.002,-0.003,-0.003,-0.004,-0.047,0.0,0.0,0.002,-0.005,-0.006,-0.002,-0.004,0.001,-0.002,0.0,0.0,0.0,-0.014,-0.001,-0.005,0.053,-0.005,-0.003,-0.005
358,0.0,-0.003,-0.003,-0.003,-0.046,0.0,0.0,0.001,-0.005,-0.006,-0.002,-0.003,0.001,-0.002,0.0,0.0,-0.001,-0.016,-0.001,-0.005,0.053,-0.005,-0.002,-0.005
359,-0.001,-0.004,-0.002,-0.003,-0.044,0.0,-0.001,0.001,-0.006,-0.006,-0.002,-0.003,0.0,-0.001,0.0,0.001,0.0,-0.017,-0.001,-0.004,0.053,-0.004,-0.002,-0.004
360,-0.002,-0.004,-0.002,-0.004,-0.045,-0.001,-0.001,0.0,-0.006,-0.006,-0.002,-0.004,0.0,-0.002,0.0,0.0,0.0,-0.016,0.0,-0.004,0.051,-0.004,-0.003,-0.004
361,-0.003,-0.004,-0.002,-0.004,-0.048,-0.001,-0.001,0.0,-0.006,-0.005,-0.002,-0.003,0.0,-0.001,0.0,0.0,0.0,-0.011,0.001,-0.003,0.051,-0.003,-0.003,-0.003
362,-0.004,-0.004,-0.003,-0.005,-0.05,-0.002,-0.002,-0.001,-0.006,-0.006,-0.003,-0.004,-0.001,-0.002,-0.001,-0.001,0.0,-0.013,0.0,-0.004,0.05,-0.003,-0.003,-0.004
363,-0.003,-0.004,-0.003,-0.004,-0.048,-0.001,-0.002,0.0,-0.006,-0.006,-0.002,-0.002,-0.001,-0.003,0.0,-0.001,0.0,-0.016,0.0,-0.005,0.049,-0.003,-0.003,-0.004
364,-0.003,-0.004,-0.004,-0.004,-0.045,-0.001,-0.003,0.0,-0.007,-0.006,-0.003,-0.003,-0.002,-0.003,-0.001,-0.002,-0.002,-0.018,-0.002,-0.006,0.047,-0.004,-0.004,-0.006
365,-0.004,-0.004,-0.004,-0.004,-0.043,-0.001,-0.002,0.0,-0.007,-0.007,-0.002,-0.004,-0.002,-0.004,-0.001,-0.002,-0.001,-0.017,-0.002,-0.005,0.047,-0.005,-0.004,-0.005
366,-0.002,-0.002,-0.003,-0.005,-0.042,0.0,-0.001,0.002,-0.006,-0.005,-0.001,-0.004,0.0,-0.003,0.0,0.0,0.0,-0.013,-0.001,-0.004,0.05,-0.004,-0.002,-0.004
367,-0.003,-0.003,-0.003,-0.006,-0.042,0.001,-0.001,0.001,-0.006,-0.006,-0.001,-0.005,0.0,-0.003,0.0,0.001,0.0,-0.013,-0.001,-0.004,0.052,-0.004,-0.002,-0.004
368,-0.002,-0.002,-0.002,-0.005,-0.044,0.002,0.0,0.001,-0.006,-0.006,-0.001,-0.004,0.0,-0.002,0.001,0.002,0.0,-0.011,-0.001,-0.004,0.052,-0.004,-0.002,-0.004
369,-0.001,-0.001,-0.002,-0.003,-0.043,0.002,0.0,0.002,-0.006,-0.005,-0.001,-0.003,0.001,-0.001,0.001,0.002,0.0,-0.01,-0.001,-0.004,0.052,-0.005,-0.003,-0.003
370,-0.001,-0.001,-0.001,-0.002,-0.044,0.002,0.001,0.002,-0.005,-0.005,-0.001,-0.004,0.001,-0.001,0.002,0.001,0.0,-0.01,-0.001,-0.004,0.049,-0.004,-0.003,-0.003
371,-0.001,-0.003,-0.001,-0.002,-0.044,0.001,0.001,0.002,-0.004,-0.004,-0.001,-0.003,0.0,-0.001,0.002,0.0,0.001,-0.007,-0.001,-0.004,0.051,-0.004,-0.002,-0.004
372,-0.002,-0.004,-0.001,-0.003,-0.045,0.001,-0.001,0.002,-0.003,-0.004,-0.001,-0.004,0.0,-0.001,0.002,0.0,0.001,-0.008,-0.001,-0.004,0.052,-0.005,-0.002,-0.004
373,-0.002,-0.004,-0.001,-0.004,-0.046,0.001,0.0,0.002,-0.004,-0.005,0.0,-0.005,0.0,-0.001,0.002,0.001,0.002,-0.006,-0.001,-0.004,0.05,-0.005,-0.001,-0.003
374,-0.001,-0.003,-0.001,-0.004,-0.045,0.002,0.0,0.003,-0.005,-0.006,0.0,-0.005,0.001,-0.001,0.002,0.002,0.002,-0.007,-0.001,-0.004,0.051,-0.005,-0.001,-0.002
375,-0.001,-0.002,-0.002,-0.004,-0.047,0.002,0.0,0.003,-0.005,-0.006,-0.001,-0.004,0.002,0.0,0.002,0.002,0.002,-0.009,-0.001,-0.004,0.051,-0.004,-0.001,-0.003
376,-0.001,-0.001,-0.001,-0.003,-0.049,0.003,0.001,0.004,-0.004,-0.006,0.0,-0.003,0.003,0.001,0.003,0.003,0.002,-0.006,0.0,-0.003,0.053,-0.003,0.0,-0.002
377,-0.001,-0.001,-0.001,-0.002,-0.049,0.003,0.001,0.003,-0.005,-0.005,0.0,-0.003,0.003,0.0,0.002,0.003,0.003,-0.005,0.001,-0.002,0.053,-0.002,0.0,-0.001
378,-0.002,-0.003,-0.002,-0.002,-0.048,0.002,0.001,0.002,-0.006,-0.005,-0.001,-0.003,0.001,-0.002,0.001,0.002,0.001,-0.007,0.001,-0.003,0.049,-0.002,-0.001,-0.002
379,-0.002,-0.004,-0.003,-0.004,-0.047,0.0,0.0,0.001,-0.006,-0.006,-0.002,-0.004,0.0,-0.003,0.0,0.001,0.0,-0.007,0.0,-0.004,0.048,-0.002,-0.002,-0.004
380,-0.002,-0.003,-0.002,-0.005,-0.047,0.001,0.0,0.001,-0.005,-0.005,-0.001,-0.003,0.001,-0.002,0.0,0.001,0.001,-0.006,0.0,-0.003,0.049,-0.002,-0.003,-0.004
381,-0.001,-0.002,-0.001,-0.005,-0.046,0.003,0.001,0.002,-0.004,-0.005,0.0,-0.003,0.002,-0.001,0.002,0.003,0.002,-0.004,0.001,-0.002,0.051,-0.001,0.0,-0.003
382,0.0,0.0,0.0,-0.003,-0.047,0.004,0.002,0.004,-0.003,-0.004,0.001,-0.003,0.002,0.0,0.002,0.003,0.002,-0.003,0.001,-0.003,0.053,-0.002,0.001,-0.002
383,0.001,0.0,0.001,-0.002,-0.049,0.005,0.002,0.005,-0.004,-0.004,0.001,-0.002,0.002,0.0,0.002,0.003,0.002,0.0,0.001,-0.003,0.053,-0.002,0.001,-0.002
384,0.0,-0.001,0.0,-0.003,-0.051,0.003,0.001,0.003,-0.005,-0.004,0.0,-0.002,0.001,-0.001,0.001,0.001,0.002,0.001,0.0,-0.004,0.052,-0.003,0.0,-0.003
385,0.0,-0.002,0.0,-0.004,-0.05,0.002,0.001,0.003,-0.006,-0.004,-0.001,-0.004,0.001,-0.002,0.0,0.001,0.001,0.0,0.0,-0.003,0.053,-0.003,-0.001,-0.004
386,-0.003,-0.004,-0.001,-0.005,-0.049,0.001,0.0,0.002,-0.007,-0.005,-0.001,-0.006,0.001,-0.003,0.0,0.001,0.001,-0.002,-0.001,-0.004,0.055,-0.005,-0.002,-0.005
387,-0.003,-0.005,-0.002,-0.007,-0.051,0.0,0.0,0.001,-0.007,-0.006,-0.001,-0.006,0.0,-0.002,0.0,0.001,0.001,-0.003,-0.001,-0.005,0.055,-0.005,-0.003,-0.005
388,-0.003,-0.004,-0.001,-0.007,-0.051,0.001,0.0,0.002,-0.005,-0.005,0.0,-0.005,0.001,-0.001,0.001,0.001,0.001,-0.003,0.0,-0.004,0.055,-0.005,-0.002,-0.004
389,-0.002,-0.002,0.002,-0.005,-0.048,0.003,0.002,0.004,-0.003,-0.003,0.001,-0.002,0.003,0.0,0.003,0.003,0.003,-0.002,0.001,-0.003,0.055,-0.003,0.0,-0.001
390,-0.001,0.0,0.003,-0.002,-0.048,0.004,0.003,0.005,-0.003,-0.002,0.002,-0.001,0.004,0.001,0.004,0.004,0.003,0.0,0.002,-0.002,0.054,-0.002,0.001,-0.001
391,-0.001,0.0,0.002,-0.001,-0.047,0.002,0.002,0.004,-0.004,-0.003,0.001,-0.002,0.002,0.0,0.003,0.003,0.002,0.0,0.001,-0.003,0.049,-0.003,-0.001,-0.001
392,-0.001,-0.001,0.0,-0.002,-0.046,0.001,0.001,0.003,-0.005,-0.004,0.0,-0.003,0.001,0.0,0.002,0.002,0.002,0.003,0.001,-0.004,0.049,-0.003,-0.002,-0.002
393,0.0,-0.002,0.0,-0.004,-0.042,0.002,0.001,0.002,-0.005,-0.005,0.0,-0.004,0.001,-0.001,0.002,0.001,0.001,0.003,0.001,-0.003,0.052,-0.003,-0.002,-0.002
394,-0.002,-0.003,0.0,-0.007,-0.039,0.002,0.001,0.002,-0.006,-0.006,-0.001,-0.006,0.0,-0.001,0.001,0.001,0.001,0.001,0.0,-0.004,0.052,-0.004,-0.001,-0.003
395,-0.003,-0.004,-0.002,-0.008,-0.042,0.001,-0.001,0.001,-0.007,-0.008,-0.002,-0.007,-0.001,-0.003,-0.001,-0.001,-0.001,-0.001,-0.002,-0.004,0.047,-0.005,-0.003,-0.004
396,-0.005,-0.005,-0.004,-0.008,-0.046,0.0,-0.002,0.0,-0.008,-0.008,-0.003,-0.007,-0.002,-0.004,-0.002,-0.001,-0.001,-0.003,-0.002,-0.005,0.043,-0.006,-0.003,-0.004
397,-0.005,-0.005,-0.003,-0.006,-0.05,0.001,-0.001,0.0,-0.007,-0.007,-0.002,-0.006,-0.001,-0.003,-0.001,0.0,-0.001,-0.001,-0.002,-0.005,0.045,-0.005,-0.003,-0.004
398,-0.003,-0.005,-0.003,-0.005,-0.052,0.001,-0.002,0.001,-0.007,-0.006,-0.002,-0.005,-0.002,-0.003,-0.001,-0.001,-0.001,0.0,-0.003,-0.005,0.046,-0.006,-0.004,-0.006
399,-0.003,-0.006,-0.003,-0.005,-0.051,0.0,-0.001,0.001,-0.007,-0.006,-0.003,-0.007,-0.002,-0.004,-0.001,-0.001,-0.001,-0.001,-0.003,-0.006,0.049,-0.006,-0.004,-0.007
400,-0.001,-0.004,-0.003,-0.004,-0.049,0.001,-0.001,0.001,-0.005,-0.004,-0.002,-0.005,-0.001,-0.003,0.0,-0.001,0.0,0.0,-0.002,-0.005,0.049,-0.004,-0.003,-0.005
401,0.0,-0.001,-0.002,-0.002,-0.048,0.001,0.0,0.002,-0.004,-0.003,0.0,-0.002,0.001,-0.001,0.001,0.002,0.002,0.001,0.0,-0.003,0.049,-0.002,-0.001,-0.003
402,0.001,0.0,-0.001,-0.001,-0.046,0.003,0.001,0.003,-0.003,-0.002,0.001,-0.001,0.002,0.0,0.003,0.003,0.003,0.002,0.001,-0.001,0.05,-0.001,0.001,-0.002
403,-0.001,-0.001,-0.001,-0.004,-0.046,0.003,0.001,0.002,-0.005,-0.004,0.001,-0.003,0.002,0.0,0.002,0.003,0.002,0.003,0.001,-0.001,0.051,-0.003,0.0,-0.002
404,-0.004,-0.003,-0.002,-0.007,-0.047,0.002,0.0,0.001,-0.007,-0.006,-0.001,-0.006,0.0,-0.001,0.002,0.001,0.001,0.004,0.0,-0.002,0.052,-0.005,-0.001,-0.002
405,-0.005,-0.004,-0.002,-0.008,-0.047,0.001,0.0,0.001,-0.008,-0.006,-0.002,-0.006,0.0,-0.002,0.001,0.001,0.001,0.002,-0.001,-0.004,0.047,-0.006,-0.003,-0.003
406,-0.003,-0.003,-0.001,-0.007,-0.046,0.002,0.0,0.001,-0.008,-0.006,-0.001,-0.005,0.001,-0.001,0.002,0.002,0.001,0.001,-0.001,-0.004,0.046,-0.005,-0.002,-0.003
407,-0.001,-0.002,0.0,-0.005,-0.044,0.002,0.0,0.002,-0.005,-0.005,0.0,-0.004,0.001,0.0,0.003,0.003,0.002,0.002,0.001,-0.003,0.045,-0.003,-0.001,-0.002
408,-0.003,-0.002,-0.001,-0.005,-0.043,0.002,0.0,0.002,-0.005,-0.005,0.0,-0.004,0.001,0.0,0.003,0.003,0.001,0.005,0.002,-0.003,0.044,-0.003,0.0,-0.003
409,-0.005,-0.003,-0.002,-0.005,-0.042,0.001,-0.001,0.002,-0.006,-0.006,-0.001,-0.005,0.0,-0.001,0.002,0.002,0.001,0.007,0.001,-0.004,0.043,-0.004,-0.001,-0.003
410,-0.003,-0.003,-0.001,-0.004,-0.042,0.002,0.0,0.003,-0.006,-0.005,0.0,-0.004,0.001,0.0,0.003,0.003,0.003,0.005,0.001,-0.003,0.045,-0.003,0.0,-0.002
411,-0.002,-0.002,0.001,-0.004,-0.041,0.004,0.002,0.004,-0.005,-0.004,0.002,-0.003,0.003,0.002,0.004,0.004,0.004,0.002,0.002,-0.002,0.049,-0.002,0.001,0.0
412,-0.001,-0.001,0.0,-0.005,-0.043,0.003,0.003,0.004,-0.005,-0.004,0.002,-0.004,0.003,0.002,0.004,0.004,0.003,-0.001,0.001,-0.001,0.049,-0.003,0.0,-0.001
413,-0.001,0.0,0.0,-0.004,-0.044,0.003,0.002,0.003,-0.005,-0.004,0.001,-0.004,0.002,0.001,0.003,0.003,0.002,-0.001,0.0,-0.003,0.045,-0.004,0.0,-0.002
414,0.0,0.001,0.0,-0.002,-0.044,0.003,0.002,0.003,-0.003,-0.002,0.001,-0.002,0.003,0.001,0.004,0.003,0.003,0.002,0.001,-0.002,0.043,-0.002,0.001,-0.002
415,0.002,0.001,0.001,0.0,-0.043,0.003,0.002,0.004,-0.002,-0.001,0.001,-0.001,0.003,0.001,0.004,0.004,0.003,0.005,0.002,0.0,0.046,0.0,0.002,-0.001
416,0.001,0.0,0.001,0.0,-0.042,0.004,0.002,0.004,-0.003,-0.001,0.001,-0.001,0.003,0.001,0.004,0.004,0.004,0.006,0.002,-0.001,0.048,0.0,0.001,-0.001
417,-0.001,-0.001,-0.001,-0.002,-0.043,0.002,0.001,0.002,-0.006,-0.004,-0.001,-0.004,0.001,-0.001,0.001,0.001,0.001,0.005,-0.001,-0.004,0.046,-0.003,-0.002,-0.003
418,-0.004,-0.003,-0.003,-0.005,-0.043,0.0,-0.001,0.0,-0.009,-0.007,-0.003,-0.007,-0.002,-0.003,-0.001,-0.002,-0.001,0.006,-0.003,-0.007,0.044,-0.006,-0.004,-0.004
419,-0.003,-0.003,-0.003,-0.007,-0.042,-0.001,-0.002,0.0,-0.009,-0.008,-0.003,-0.005,-0.002,-0.002,0.0,-0.001,-0.001,0.008,-0.003,-0.006,0.045,-0.005,-0.004,-0.004
420,-0.002,-0.003,-0.002,-0.006,-0.043,0.0,-0.001,0.001,-0.008,-0.008,-0.003,-0.004,-0.001,-0.002,0.0,-0.001,0.0,0.006,-0.002,-0.004,0.047,-0.004,-0.002,-0.003
421,0.0,-0.003,-0.002,-0.006,-0.045,0.0,-0.001,0.001,-0.007,-0.006,-0.002,-0.004,-0.001,-0.003,0.0,0.0,0.001,-0.003,-0.001,-0.003,0.048,-0.003,-0.002,-0.003
422,0.0,-0.002,-0.003,-0.005,-0.046,-0.001,-0.002,0.0,-0.006,-0.005,-0.002,-0.004,-0.001,-0.003,0.0,0.0,0.0,-0.008,-0.001,-0.003,0.044,-0.003,-0.003,-0.004
423,-0.002,-0.002,-0.004,-0.006,-0.046,-0.001,-0.003,-0.001,-0.007,-0.006,-0.003,-0.005,-0.002,-0.003,-0.001,-0.002,-0.001,-0.005,-0.003,-0.004,0.042,-0.004,-0.004,-0.005
424,-0.003,-0.003,-0.004,-0.007,-0.043,-0.001,-0.003,-0.001,-0.008,-0.007,-0.004,-0.006,-0.002,-0.003,0.0,-0.001,-0.001,-0.004,-0.002,-0.004,0.041,-0.004,-0.005,-0.005
425,-0.003,-0.004,-0.003,-0.009,-0.041,-0.001,-0.003,-0.001,-0.008,-0.008,-0.004,-0.008,-0.002,-0.003,-0.001,-0.001,-0.002,-0.004,-0.002,-0.005,0.041,-0.005,-0.004,-0.004
426,-0.003,-0.005,-0.003,-0.009,-0.038,-0.002,-0.003,-0.001,-0.008,-0.009,-0.004,-0.009,-0.002,-0.004,-0.002,-0.001,-0.002,-0.005,-0.002,-0.006,0.042,-0.006,-0.005,-0.005
427,-0.004,-0.004,-0.003,-0.009,-0.035,-0.002,-0.003,-0.001,-0.009,-0.009,-0.004,-0.009,-0.003,-0.004,-0.002,-0.002,-0.002,-0.003,-0.003,-0.006,0.04,-0.007,-0.005,-0.007
428,-0.004,-0.004,-0.003,-0.007,-0.034,-0.002,-0.003,-0.001,-0.01,-0.01,-0.004,-0.009,-0.003,-0.004,-0.002,-0.002,-0.002,-0.001,-0.004,-0.006,0.039,-0.007,-0.006,-0.007
429,-0.003,-0.002,-0.002,-0.004,-0.034,-0.001,-0.001,0.001,-0.009,-0.009,-0.002,-0.008,-0.001,-0.003,0.0,0.0,0.0,-0.003,-0.002,-0.004,0.042,-0.006,-0.004,-0.005
430,-0.001,0.0,0.0,-0.003,-0.034,0.002,0.001,0.003,-0.007,-0.006,0.0,-0.005,0.002,-0.001,0.002,0.002,0.002,-0.001,0.0,-0.003,0.048,-0.004,-0.001,-0.002
431,0.0,0.0,0.001,-0.003,-0.035,0.003,0.002,0.004,-0.004,-0.005,0.002,-0.003,0.003,0.0,0.003,0.003,0.003,0.0,0.002,-0.001,0.053,-0.002,0.001,-0.001
432,-0.003,-0.001,-0.001,-0.004,-0.035,0.003,0.001,0.003,-0.006,-0.006,0.001,-0.004,0.002,0.0,0.002,0.002,0.002,0.002,0.001,-0.002,0.051,-0.003,0.0,-0.003
433,-0.004,-0.002,-0.001,-0.004,-0.037,0.001,0.0,0.002,-0.007,-0.006,0.0,-0.005,0.001,-0.001,0.0,0.001,0.0,0.002,0.0,-0.004,0.047,-0.004,-0.001,-0.004
434,-0.005,-0.002,-0.002,-0.003,-0.038,0.001,0.0,0.002,-0.007,-0.005,-0.001,-0.004,0.001,-0.002,0.0,0.0,0.0,-0.001,-0.001,-0.004,0.042,-0.004,-0.002,-0.005
435,-0.003,-0.002,-0.002,-0.003,-0.036,0.001,-0.001,0.002,-0.007,-0.006,-0.001,-0.003,0.0,-0.002,0.0,0.0,0.0,-0.003,-0.001,-0.004,0.04,-0.004,-0.002,-0.005
436,-0.003,-0.003,-0.003,-0.005,-0.034,0.0,-0.002,0.0,-0.008,-0.007,-0.002,-0.003,-0.002,-0.003,0.0,-0.001,0.0,-0.004,-0.002,-0.005,0.039,-0.005,-0.002,-0.005
437,-0.002,-0.003,-0.003,-0.006,-0.035,0.0,-0.002,0.0,-0.007,-0.007,-0.002,-0.005,-0.002,-0.003,0.0,0.0,0.0,0.0,-0.002,-0.005,0.04,-0.005,-0.002,-0.005
438,-0.002,-0.002,-0.003,-0.005,-0.039,-0.001,-0.002,0.0,-0.007,-0.007,-0.002,-0.006,-0.002,-0.003,-0.001,-0.001,-0.001,0.001,-0.003,-0.005,0.04,-0.005,-0.002,-0.005
439,-0.002,-0.003,-0.003,-0.004,-0.04,-0.001,-0.003,-0.001,-0.007,-0.007,-0.002,-0.008,-0.002,-0.004,-0.001,-0.001,-0.001,-0.001,-0.002,-0.005,0.042,-0.005,-0.002,-0.006
440,-0.002,-0.003,-0.003,-0.004,-0.037,-0.001,-0.002,0.0,-0.008,-0.008,-0.002,-0.007,-0.002,-0.003,0.0,-0.001,0.0,-0.001,-0.002,-0.005,0.045,-0.005,-0.002,-0.005
441,-0.004,-0.004,-0.004,-0.007,-0.034,-0.002,-0.003,-0.001,-0.009,-0.011,-0.003,-0.008,-0.003,-0.004,-0.001,-0.002,-0.002,-0.001,-0.003,-0.006,0.045,-0.008,-0.004,-0.006
442,-0.006,-0.005,-0.004,-0.009,-0.031,-0.003,-0.003,-0.001,-0.01,-0.012,-0.004,-0.009,-0.003,-0.004,-0.002,-0.002,-0.002,0.0,-0.004,-0.007,0.042,-0.01,-0.005,-0.006
443,-0.006,-0.006,-0.005,-0.009,-0.029,-0.003,-0.004,-0.001,-0.01,-0.012,-0.005,-0.01,-0.002,-0.005,-0.002,-0.002,-0.003,-0.004,-0.005,-0.007,0.04,-0.01,-0.006,-0.006
444,-0.005,-0.005,-0.003,-0.007,-0.029,-0.002,-0.003,0.0,-0.009,-0.009,-0.003,-0.008,-0.001,-0.004,-0.001,-0.001,0.0,-0.005,-0.003,-0.005,0.041,-0.007,-0.004,-0.006
445,-0.005,-0.004,-0.003,-0.006,-0.033,-0.002,-0.002,0.0,-0.009,-0.007,-0.002,-0.008,-0.001,-0.004,-0.002,0.0,0.001,-0.005,-0.002,-0.005,0.043,-0.005,-0.003,-0.006
446,-0.005,-0.004,-0.003,-0.006,-0.035,-0.002,-0.003,0.0,-0.009,-0.007,-0.003,-0.009,-0.002,-0.004,-0.002,-0.001,0.0,-0.003,-0.004,-0.006,0.043,-0.006,-0.005,-0.007
447,-0.005,-0.004,-0.003,-0.006,-0.033,-0.002,-0.003,0.0,-0.009,-0.008,-0.003,-0.01,-0.002,-0.004,-0.002,-0.002,-0.002,-0.002,-0.005,-0.007,0.041,-0.007,-0.006,-0.007
448,-0.002,-0.003,-0.003,-0.004,-0.026,0.0,-0.002,0.001,-0.007,-0.006,-0.002,-0.007,-0.001,-0.002,0.0,-0.001,-0.001,0.001,-0.003,-0.005,0.041,-0.005,-0.004,-0.004
449,-0.001,-0.002,-0.003,-0.003,-0.022,0.001,-0.001,0.002,-0.006,-0.005,0.0,-0.004,0.001,0.0,0.002,0.001,0.001,-0.001,0.0,-0.002,0.038,-0.002,-0.001,-0.002
450,-0.001,0.0,-0.002,-0.002,-0.022,0.001,-0.001,0.002,-0.006,-0.006,0.0,-0.002,0.001,0.0,0.003,0.001,0.001,-0.003,0.001,-0.002,0.033,-0.003,-0.001,-0.002
451,-0.003,0.0,-0.003,-0.004,-0.024,0.0,-0.002,0.0,-0.006,-0.007,-0.001,-0.002,0.0,-0.002,0.001,0.0,0.0,-0.006,-0.002,-0.004,0.03,-0.005,-0.002,-0.004
452,-0.004,-0.001,-0.002,-0.005,-0.024,0.0,-0.003,0.0,-0.006,-0.006,-0.001,-0.003,0.0,-0.004,0.0,0.001,0.0,-0.009,-0.003,-0.004,0.031,-0.005,-0.002,-0.005
453,-0.004,-0.003,-0.003,-0.006,-0.023,0.0,-0.003,0.0,-0.005,-0.005,-0.001,-0.005,0.001,-0.004,-0.001,0.001,0.0,-0.013,-0.003,-0.003,0.035,-0.005,-0.002,-0.005
454,-0.004,-0.004,-0.004,-0.006,-0.02,-0.001,-0.003,0.0,-0.006,-0.006,-0.002,-0.006,0.0,-0.004,0.0,0.0,0.0,-0.015,-0.002,-0.003,0.036,-0.005,-0.002,-0.005
455,-0.005,-0.004,-0.004,-0.008,-0.017,-0.002,-0.003,-0.001,-0.008,-0.008,-0.002,-0.008,-0.001,-0.003,0.0,-0.002,-0.002,-0.012,-0.003,-0.005,0.035,-0.006,-0.004,-0.005
456,-0.006,-0.005,-0.006,-0.009,-0.016,-0.003,-0.004,-0.002,-0.01,-0.01,-0.005,-0.009,-0.003,-0.004,-0.001,-0.003,-0.004,-0.011,-0.005,-0.007,0.033,-0.008,-0.007,-0.005
457,-0.006,-0.006,-0.008,-0.009,-0.02,-0.002,-0.004,-0.002,-0.01,-0.011,-0.005,-0.011,-0.004,-0.004,-0.001,-0.003,-0.005,-0.009,-0.005,-0.008,0.032,-0.009,-0.008,-0.006
458,-0.005,-0.008,-0.008,-0.008,-0.029,-0.002,-0.005,-0.003,-0.008,-0.009,-0.005,-0.009,-0.004,-0.005,-0.001,-0.003,-0.005,-0.006,-0.006,-0.008,0.033,-0.009,-0.007,-0.006
459,-0.004,-0.007,-0.006,-0.005,-0.032,-0.003,-0.005,-0.003,-0.007,-0.006,-0.005,-0.007,-0.004,-0.005,-0.001,-0.003,-0.004,-0.003,-0.006,-0.009,0.036,-0.008,-0.005,-0.007
460,-0.004,-0.007,-0.006,-0.005,-0.029,-0.004,-0.006,-0.004,-0.007,-0.006,-0.005,-0.007,-0.004,-0.006,-0.003,-0.004,-0.004,-0.008,-0.007,-0.009,0.037,-0.007,-0.005,-0.007
461,-0.005,-0.009,-0.006,-0.007,-0.023,-0.005,-0.006,-0.004,-0.009,-0.008,-0.006,-0.008,-0.005,-0.007,-0.005,-0.006,-0.005,-0.013,-0.008,-0.01,0.034,-0.008,-0.006,-0.009
462,-0.006,-0.009,-0.006,-0.01,-0.022,-0.004,-0.005,-0.004,-0.01,-0.009,-0.006,-0.01,-0.005,-0.008,-0.005,-0.005,-0.006,-0.014,-0.008,-0.01,0.031,-0.008,-0.007,-0.01
463,-0.006,-0.009,-0.007,-0.011,-0.022,-0.004,-0.006,-0.004,-0.011,-0.01,-0.007,-0.011,-0.005,-0.008,-0.006,-0.006,-0.007,-0.013,-0.009,-0.011,0.028,-0.01,-0.009,-0.011
464,-0.004,-0.006,-0.005,-0.008,-0.017,-0.003,-0.004,-0.002,-0.011,-0.009,-0.005,-0.01,-0.003,-0.006,-0.003,-0.004,-0.005,-0.008,-0.007,-0.009,0.028,-0.009,-0.007,-0.009
465,-0.003,-0.003,-0.003,-0.008,-0.011,-0.001,-0.002,0.0,-0.01,-0.009,-0.003,-0.009,0.0,-0.003,0.0,-0.002,-0.002,-0.004,-0.005,-0.006,0.032,-0.007,-0.004,-0.005
466,-0.004,-0.003,-0.002,-0.01,-0.012,0.0,-0.002,0.001,-0.009,-0.01,-0.002,-0.01,0.001,-0.002,0.001,0.0,0.0,0.0,-0.002,-0.004,0.036,-0.007,-0.002,-0.003
467,-0.007,-0.007,-0.006,-0.012,-0.017,-0.002,-0.004,-0.002,-0.01,-0.012,-0.004,-0.013,-0.002,-0.005,-0.001,-0.002,-0.003,-0.007,-0.003,-0.006,0.035,-0.009,-0.004,-0.005
468,-0.01,-0.01,-0.009,-0.014,-0.02,-0.004,-0.007,-0.005,-0.012,-0.014,-0.008,-0.013,-0.006,-0.008,-0.004,-0.005,-0.006,-0.012,-0.006,-0.008,0.034,-0.011,-0.007,-0.008
469,-0.012,-0.012,-0.011,-0.014,-0.018,-0.007,-0.009,-0.008,-0.015,-0.016,-0.01,-0.011,-0.008,-0.009,-0.006,-0.007,-0.007,-0.012,-0.009,-0.01,0.032,-0.011,-0.009,-0.011
470,-0.011,-0.011,-0.01,-0.013,-0.013,-0.006,-0.008,-0.006,-0.014,-0.015,-0.008,-0.008,-0.007,-0.007,-0.004,-0.006,-0.005,-0.01,-0.007,-0.008,0.03,-0.01,-0.008,-0.009
471,-0.008,-0.007,-0.006,-0.011,-0.013,-0.005,-0.006,-0.004,-0.012,-0.014,-0.006,-0.006,-0.005,-0.005,-0.003,-0.005,-0.003,-0.01,-0.004,-0.006,0.026,-0.009,-0.006,-0.008
472,-0.005,-0.004,-0.004,-0.009,-0.016,-0.003,-0.004,-0.002,-0.008,-0.011,-0.004,-0.004,-0.002,-0.002,-0.001,-0.003,-0.002,-0.009,-0.003,-0.005,0.024,-0.007,-0.004,-0.005
473,-0.004,-0.003,-0.004,-0.008,-0.019,-0.002,-0.003,-0.001,-0.007,-0.009,-0.004,-0.004,-0.002,-0.003,-0.002,-0.003,-0.003,-0.007,-0.004,-0.007,0.027,-0.006,-0.004,-0.006
474,-0.004,-0.004,-0.003,-0.008,-0.018,-0.002,-0.002,-0.001,-0.007,-0.008,-0.003,-0.005,-0.002,-0.004,-0.002,-0.002,-0.002,-0.005,-0.004,-0.007,0.034,-0.006,-0.004,-0.006
475,-0.004,-0.004,-0.004,-0.007,-0.017,-0.001,-0.002,-0.001,-0.008,-0.008,-0.002,-0.007,-0.002,-0.005,-0.002,-0.001,-0.003,-0.007,-0.003,-0.006,0.037,-0.006,-0.005,-0.006
476,-0.006,-0.005,-0.006,-0.009,-0.018,-0.003,-0.005,-0.003,-0.01,-0.01,-0.004,-0.011,-0.005,-0.006,-0.003,-0.003,-0.004,-0.012,-0.005,-0.007,0.032,-0.008,-0.007,-0.008
477,-0.008,-0.008,-0.008,-0.011,-0.019,-0.004,-0.007,-0.005,-0.012,-0.012,-0.006,-0.012,-0.006,-0.006,-0.004,-0.005,-0.006,-0.016,-0.007,-0.008,0.026,-0.01,-0.008,-0.009
478,-0.009,-0.008,-0.008,-0.012,-0.015,-0.004,-0.007,-0.005,-0.013,-0.012,-0.007,-0.012,-0.006,-0.006,-0.004,-0.006,-0.005,-0.018,-0.008,-0.009,0.023,-0.01,-0.008,-0.009
479,-0.008,-0.006,-0.005,-0.01,-0.008,-0.003,-0.005,-0.003,-0.01,-0.01,-0.005,-0.01,-0.003,-0.005,-0.003,-0.005,-0.003,-0.014,-0.006,-0.007,0.028,-0.008,-0.006,-0.008
480,-0.007,-0.005,-0.007,-0.01,-0.007,-0.004,-0.005,-0.003,-0.01,-0.01,-0.006,-0.009,-0.005,-0.007,-0.004,-0.005,-0.005,-0.009,-0.006,-0.007,0.029,-0.008,-0.007,-0.008
481,-0.008,-0.006,-0.009,-0.011,-0.011,-0.006,-0.008,-0.005,-0.01,-0.012,-0.008,-0.01,-0.008,-0.009,-0.005,-0.008,-0.007,-0.007,-0.008,-0.01,0.027,-0.011,-0.01,-0.01
482,-0.008,-0.008,-0.01,-0.012,-0.024,-0.007,-0.009,-0.006,-0.01,-0.012,-0.008,-0.01,-0.008,-0.009,-0.005,-0.008,-0.008,-0.011,-0.009,-0.012,0.031,-0.012,-0.01,-0.01
483,-0.007,-0.009,-0.01,-0.011,-0.032,-0.007,-0.008,-0.006,-0.009,-0.011,-0.009,-0.009,-0.007,-0.009,-0.006,-0.008,-0.007,-0.014,-0.007,-0.011,0.035,-0.01,-0.009,-0.011
484,-0.006,-0.009,-0.01,-0.009,-0.019,-0.007,-0.008,-0.005,-0.009,-0.01,-0.008,-0.009,-0.006,-0.008,-0.006,-0.007,-0.006,-0.021,-0.006,-0.008,0.034,-0.008,-0.008,-0.01
485,-0.008,-0.01,-0.011,-0.011,0.002,-0.006,-0.008,-0.006,-0.011,-0.011,-0.008,-0.011,-0.006,-0.008,-0.006,-0.007,-0.006,-0.028,-0.006,-0.007,0.029,-0.008,-0.008,-0.01
486,-0.009,-0.011,-0.011,-0.012,0.01,-0.006,-0.008,-0.006,-0.013,-0.012,-0.008,-0.012,-0.006,-0.008,-0.005,-0.006,-0.005,-0.029,-0.007,-0.008,0.028,-0.009,-0.008,-0.009
487,-0.011,-0.013,-0.011,-0.015,0.004,-0.007,-0.008,-0.007,-0.015,-0.014,-0.008,-0.012,-0.007,-0.008,-0.005,-0.007,-0.006,-0.025,-0.008,-0.009,0.033,-0.01,-0.009,-0.01
488,-0.013,-0.015,-0.013,-0.017,0.0,-0.01,-0.012,-0.009,-0.018,-0.018,-0.011,-0.014,-0.01,-0.011,-0.009,-0.01,-0.01,-0.027,-0.011,-0.013,0.03,-0.014,-0.012,-0.013
489,-0.015,-0.015,-0.014,-0.018,0.007,-0.011,-0.013,-0.01,-0.019,-0.019,-0.012,-0.015,-0.011,-0.013,-0.011,-0.011,-0.011,-0.037,-0.011,-0.013,0.022,-0.015,-0.013,-0.013
490,-0.015,-0.014,-0.013,-0.017,0.006,-0.01,-0.012,-0.009,-0.017,-0.017,-0.011,-0.015,-0.01,-0.013,-0.009,-0.01,-0.01,-0.037,-0.011,-0.013,0.02,-0.015,-0.013,-0.013
491,-0.014,-0.014,-0.013,-0.014,-0.002,-0.009,-0.011,-0.008,-0.016,-0.015,-0.011,-0.015,-0.01,-0.012,-0.008,-0.008,-0.009,-0.029,-0.01,-0.012,0.022,-0.013,-0.012,-0.012
492,-0.015,-0.016,-0.015,-0.016,-0.001,-0.012,-0.014,-0.011,-0.016,-0.016,-0.013,-0.016,-0.012,-0.014,-0.01,-0.011,-0.011,-0.033,-0.012,-0.014,0.019,-0.014,-0.013,-0.015
493,-0.017,-0.018,-0.018,-0.019,0.007,-0.016,-0.018,-0.014,-0.02,-0.02,-0.016,-0.019,-0.015,-0.017,-0.014,-0.015,-0.014,-0.044,-0.014,-0.015,0.009,-0.016,-0.016,-0.017
494,-0.018,-0.019,-0.018,-0.021,0.012,-0.017,-0.018,-0.014,-0.021,-0.021,-0.015,-0.02,-0.015,-0.018,-0.015,-0.015,-0.015,-0.053,-0.013,-0.014,0.002,-0.016,-0.015,-0.018
495,-0.015,-0.016,-0.016,-0.019,0.006,-0.013,-0.016,-0.012,-0.018,-0.019,-0.013,-0.018,-0.013,-0.015,-0.012,-0.013,-0.013,-0.05,-0.011,-0.011,0.007,-0.014,-0.013,-0.015
496,-0.01,-0.011,-0.012,-0.014,0.002,-0.008,-0.011,-0.009,-0.015,-0.014,-0.011,-0.014,-0.009,-0.011,-0.009,-0.009,-0.009,-0.04,-0.008,-0.008,0.018,-0.01,-0.01,-0.011
497,-0.008,-0.01,-0.011,-0.011,0.005,-0.007,-0.01,-0.008,-0.013,-0.013,-0.01,-0.011,-0.008,-0.01,-0.008,-0.008,-0.009,-0.038,-0.009,-0.009,0.021,-0.01,-0.008,-0.01
498,-0.01,-0.012,-0.012,-0.013,0.006,-0.009,-0.011,-0.009,-0.015,-0.015,-0.011,-0.012,-0.01,-0.012,-0.009,-0.01,-0.011,-0.042,-0.011,-0.01,0.015,-0.012,-0.01,-0.012
499,-0.012,-0.016,-0.015,-0.016,0.011,-0.013,-0.014,-0.012,-0.017,-0.018,-0.013,-0.014,-0.012,-0.014,-0.011,-0.013,-0.013,-0.05,-0.012,-0.013,0.005,-0.014,-0.013,-0.014
500,-0.015,-0.017,-0.015,-0.019,0.013,-0.014,-0.015,-0.013,-0.019,-0.021,-0.014,-0.017,-0.013,-0.016,-0.014,-0.015,-0.014,-0.052,-0.014,-0.015,-0.002,-0.017,-0.016,-0.017
501,-0.015,-0.015,-0.013,-0.019,0.013,-0.012,-0.013,-0.011,-0.019,-0.02,-0.012,-0.016,-0.012,-0.014,-0.012,-0.013,-0.012,-0.047,-0.013,-0.013,0.001,-0.016,-0.015,-0.016
502,-0.014,-0.014,-0.012,-0.019,0.014,-0.01,-0.013,-0.01,-0.019,-0.019,-0.011,-0.016,-0.01,-0.013,-0.01,-0.011,-0.011,-0.043,-0.011,-0.012,0.012,-0.014,-0.013,-0.014
503,-0.013,-0.013,-0.013,-0.021,0.016,-0.009,-0.013,-0.01,-0.02,-0.019,-0.01,-0.018,-0.01,-0.012,-0.008,-0.011,-0.01,-0.041,-0.01,-0.01,0.017,-0.012,-0.012,-0.011
504,-0.013,-0.014,-0.014,-0.022,0.021,-0.011,-0.013,-0.011,-0.021,-0.021,-0.011,-0.018,-0.012,-0.013,-0.009,-0.012,-0.011,-0.045,-0.011,-0.01,0.013,-0.012,-0.014,-0.012
505,-0.014,-0.013,-0.014,-0.019,0.021,-0.011,-0.013,-0.011,-0.02,-0.019,-0.012,-0.017,-0.013,-0.014,-0.011,-0.013,-0.012,-0.051,-0.011,-0.01,0.005,-0.013,-0.014,-0.014
506,-0.013,-0.01,-0.013,-0.014,0.019,-0.009,-0.012,-0.01,-0.017,-0.015,-0.012,-0.013,-0.011,-0.014,-0.011,-0.011,-0.011,-0.052,-0.011,-0.01,0.001,-0.012,-0.013,-0.014
507,-0.013,-0.01,-0.013,-0.013,0.018,-0.009,-0.012,-0.01,-0.016,-0.014,-0.012,-0.013,-0.01,-0.013,-0.01,-0.009,-0.011,-0.054,-0.011,-0.011,-0.001,-0.012,-0.012,-0.015
508,-0.013,-0.01,-0.012,-0.014,0.019,-0.008,-0.011,-0.009,-0.016,-0.015,-0.011,-0.013,-0.01,-0.012,-0.009,-0.009,-0.01,-0.054,-0.01,-0.011,-0.004,-0.012,-0.012,-0.013
509,-0.014,-0.011,-0.012,-0.018,0.024,-0.009,-0.01,-0.009,-0.017,-0.018,-0.011,-0.013,-0.011,-0.012,-0.009,-0.009,-0.01,-0.056,-0.011,-0.012,-0.006,-0.013,-0.014,-0.013
510,-0.017,-0.012,-0.014,-0.021,0.028,-0.01,-0.012,-0.01,-0.02,-0.021,-0.012,-0.017,-0.011,-0.013,-0.011,-0.012,-0.011,-0.056,-0.013,-0.014,-0.005,-0.015,-0.016,-0.014
511,-0.02,-0.015,-0.016,-0.025,0.028,-0.014,-0.016,-0.013,-0.024,-0.024,-0.015,-0.022,-0.014,-0.016,-0.014,-0.015,-0.014,-0.057,-0.016,-0.016,-0.005,-0.018,-0.019,-0.018
512,-0.021,-0.017,-0.018,-0.027,0.029,-0.016,-0.018,-0.015,-0.025,-0.026,-0.017,-0.025,-0.016,-0.017,-0.015,-0.017,-0.016,-0.061,-0.018,-0.017,-0.007,-0.019,-0.02,-0.02
513,-0.018,-0.017,-0.017,-0.025,0.03,-0.015,-0.018,-0.015,-0.023,-0.024,-0.017,-0.024,-0.017,-0.018,-0.016,-0.017,-0.017,-0.062,-0.017,-0.017,-0.009,-0.018,-0.02,-0.02
514,-0.019,-0.018,-0.018,-0.026,0.03,-0.015,-0.016,-0.016,-0.024,-0.025,-0.017,-0.026,-0.017,-0.018,-0.016,-0.016,-0.017,-0.062,-0.017,-0.017,-0.006,-0.019,-0.02,-0.02
515,-0.021,-0.021,-0.02,-0.028,0.028,-0.016,-0.018,-0.017,-0.026,-0.028,-0.019,-0.029,-0.019,-0.02,-0.017,-0.018,-0.018,-0.06,-0.019,-0.02,-0.001,-0.024,-0.021,-0.021
516,-0.026,-0.024,-0.023,-0.029,0.028,-0.018,-0.021,-0.019,-0.028,-0.029,-0.022,-0.032,-0.02,-0.021,-0.018,-0.019,-0.02,-0.063,-0.019,-0.021,-0.003,-0.025,-0.022,-0.022
517,-0.024,-0.02,-0.022,-0.025,0.033,-0.017,-0.019,-0.017,-0.025,-0.025,-0.019,-0.025,-0.018,-0.019,-0.016,-0.017,-0.017,-0.061,-0.016,-0.017,-0.011,-0.021,-0.019,-0.02
518,-0.02,-0.016,-0.02,-0.021,0.038,-0.015,-0.017,-0.014,-0.021,-0.021,-0.016,-0.019,-0.014,-0.017,-0.014,-0.014,-0.014,-0.062,-0.013,-0.013,-0.014,-0.017,-0.014,-0.017
519,-0.018,-0.016,-0.018,-0.02,0.043,-0.014,-0.016,-0.013,-0.019,-0.019,-0.014,-0.018,-0.013,-0.015,-0.012,-0.013,-0.013,-0.065,-0.013,-0.011,-0.01,-0.015,-0.014,-0.016
520,-0.018,-0.018,-0.019,-0.02,0.044,-0.014,-0.017,-0.014,-0.02,-0.02,-0.016,-0.019,-0.015,-0.016,-0.013,-0.016,-0.015,-0.071,-0.015,-0.015,-0.007,-0.017,-0.017,-0.018
521,-0.02,-0.02,-0.019,-0.02,0.043,-0.015,-0.018,-0.016,-0.022,-0.021,-0.017,-0.021,-0.016,-0.017,-0.014,-0.018,-0.017,-0.077,-0.017,-0.017,-0.01,-0.02,-0.02,-0.019
522,-0.021,-0.019,-0.02,-0.02,0.041,-0.016,-0.019,-0.017,-0.024,-0.023,-0.018,-0.02,-0.017,-0.018,-0.016,-0.018,-0.018,-0.079,-0.018,-0.019,-0.018,-0.022,-0.021,-0.02
523,-0.023,-0.019,-0.022,-0.023,0.039,-0.019,-0.02,-0.019,-0.027,-0.028,-0.02,-0.023,-0.019,-0.02,-0.018,-0.019,-0.019,-0.079,-0.02,-0.021,-0.026,-0.025,-0.023,-0.022
524,-0.023,-0.019,-0.022,-0.025,0.041,-0.019,-0.021,-0.019,-0.027,-0.029,-0.02,-0.024,-0.02,-0.022,-0.018,-0.019,-0.02,-0.075,-0.02,-0.021,-0.026,-0.024,-0.022,-0.022
525,-0.022,-0.019,-0.019,-0.024,0.044,-0.017,-0.018,-0.017,-0.025,-0.026,-0.018,-0.023,-0.018,-0.02,-0.016,-0.017,-0.018,-0.071,-0.018,-0.018,-0.02,-0.021,-0.02,-0.021
526,-0.019,-0.017,-0.017,-0.021,0.046,-0.015,-0.015,-0.014,-0.021,-0.022,-0.015,-0.02,-0.015,-0.017,-0.014,-0.015,-0.016,-0.069,-0.015,-0.015,-0.012,-0.017,-0.018,-0.018
527,-0.017,-0.017,-0.018,-0.021,0.045,-0.016,-0.016,-0.014,-0.019,-0.019,-0.015,-0.021,-0.015,-0.016,-0.013,-0.015,-0.014,-0.066,-0.014,-0.014,-0.007,-0.015,-0.018,-0.017
528,-0.016,-0.016,-0.018,-0.02,0.045,-0.015,-0.016,-0.014,-0.02,-0.02,-0.015,-0.022,-0.014,-0.016,-0.013,-0.015,-0.014,-0.066,-0.015,-0.015,-0.006,-0.016,-0.018,-0.018
529,-0.018,-0.018,-0.02,-0.023,0.051,-0.018,-0.019,-0.017,-0.024,-0.024,-0.018,-0.024,-0.018,-0.02,-0.017,-0.019,-0.018,-0.075,-0.018,-0.018,-0.015,-0.02,-0.022,-0.021
530,-0.022,-0.021,-0.024,-0.026,0.058,-0.02,-0.023,-0.021,-0.029,-0.029,-0.023,-0.024,-0.022,-0.024,-0.022,-0.024,-0.023,-0.087,-0.023,-0.021,-0.029,-0.025,-0.025,-0.026
531,-0.025,-0.023,-0.026,-0.027,0.062,-0.022,-0.024,-0.023,-0.03,-0.03,-0.025,-0.025,-0.024,-0.026,-0.024,-0.026,-0.025,-0.092,-0.025,-0.023,-0.035,-0.027,-0.027,-0.028
532,-0.023,-0.02,-0.023,-0.025,0.055,-0.019,-0.021,-0.02,-0.026,-0.026,-0.022,-0.024,-0.021,-0.023,-0.021,-0.022,-0.022,-0.086,-0.023,-0.021,-0.03,-0.024,-0.024,-0.025
533,-0.02,-0.016,-0.019,-0.023,0.051,-0.017,-0.019,-0.017,-0.023,-0.022,-0.018,-0.022,-0.017,-0.019,-0.017,-0.019,-0.017,-0.083,-0.019,-0.018,-0.025,-0.02,-0.019,-0.02
534,-0.02,-0.017,-0.02,-0.023,0.056,-0.018,-0.02,-0.017,-0.024,-0.023,-0.018,-0.022,-0.018,-0.019,-0.017,-0.02,-0.018,-0.086,-0.019,-0.018,-0.028,-0.02,-0.019,-0.021
535,-0.022,-0.019,-0.021,-0.024,0.061,-0.019,-0.021,-0.017,-0.024,-0.026,-0.019,-0.022,-0.019,-0.02,-0.018,-0.021,-0.02,-0.087,-0.02,-0.019,-0.032,-0.022,-0.02,-0.023
536,-0.023,-0.022,-0.023,-0.025,0.062,-0.02,-0.022,-0.019,-0.026,-0.028,-0.021,-0.023,-0.021,-0.021,-0.019,-0.022,-0.022,-0.086,-0.021,-0.021,-0.034,-0.024,-0.023,-0.024
537,-0.024,-0.023,-0.025,-0.027,0.058,-0.022,-0.024,-0.021,-0.028,-0.031,-0.024,-0.025,-0.023,-0.023,-0.021,-0.023,-0.023,-0.088,-0.024,-0.023,-0.036,-0.025,-0.026,-0.026
538,-0.022,-0.021,-0.024,-0.027,0.059,-0.021,-0.024,-0.022,-0.028,-0.03,-0.023,-0.025,-0.023,-0.023,-0.022,-0.023,-0.023,-0.089,-0.024,-0.022,-0.038,-0.025,-0.026,-0.025
539,-0.021,-0.019,-0.023,-0.027,0.058,-0.02,-0.022,-0.021,-0.026,-0.027,-0.021,-0.025,-0.021,-0.023,-0.021,-0.021,-0.021,-0.087,-0.023,-0.021,-0.04,-0.023,-0.025,-0.025
540,-0.019,-0.015,-0.02,-0.024,0.053,-0.016,-0.018,-0.016,-0.024,-0.023,-0.017,-0.022,-0.017,-0.019,-0.017,-0.017,-0.018,-0.08,-0.018,-0.018,-0.036,-0.019,-0.021,-0.021
541,-0.018,-0.014,-0.018,-0.022,0.052,-0.014,-0.016,-0.014,-0.023,-0.021,-0.015,-0.019,-0.015,-0.016,-0.013,-0.014,-0.015,-0.076,-0.016,-0.015,-0.031,-0.017,-0.018,-0.017
542,-0.018,-0.016,-0.021,-0.022,0.056,-0.016,-0.018,-0.016,-0.023,-0.023,-0.018,-0.019,-0.017,-0.017,-0.014,-0.016,-0.017,-0.081,-0.016,-0.016,-0.033,-0.018,-0.019,-0.019
543,-0.02,-0.019,-0.023,-0.026,0.062,-0.019,-0.021,-0.019,-0.025,-0.027,-0.021,-0.022,-0.021,-0.02,-0.018,-0.02,-0.02,-0.088,-0.019,-0.019,-0.038,-0.021,-0.023,-0.022
544,-0.023,-0.022,-0.025,-0.029,0.063,-0.022,-0.023,-0.022,-0.027,-0.03,-0.023,-0.025,-0.023,-0.023,-0.021,-0.024,-0.023,-0.092,-0.023,-0.021,-0.042,-0.025,-0.027,-0.025
545,-0.025,-0.021,-0.025,-0.029,0.061,-0.02,-0.023,-0.021,-0.028,-0.03,-0.022,-0.025,-0.022,-0.022,-0.019,-0.023,-0.022,-0.091,-0.023,-0.021,-0.041,-0.025,-0.026,-0.024
546,-0.024,-0.019,-0.025,-0.028,0.059,-0.02,-0.022,-0.02,-0.027,-0.029,-0.021,-0.025,-0.022,-0.02,-0.018,-0.021,-0.021,-0.093,-0.023,-0.021,-0.039,-0.025,-0.025,-0.021
547,-0.024,-0.019,-0.024,-0.029,0.057,-0.02,-0.022,-0.02,-0.028,-0.029,-0.021,-0.026,-0.022,-0.021,-0.018,-0.021,-0.021,-0.098,-0.022,-0.021,-0.039,-0.026,-0.024,-0.021
548,-0.023,-0.019,-0.024,-0.028,0.059,-0.021,-0.023,-0.021,-0.029,-0.03,-0.022,-0.026,-0.022,-0.021,-0.019,-0.02,-0.022,-0.099,-0.022,-0.021,-0.041,-0.026,-0.025,-0.022
549,-0.022,-0.018,-0.024,-0.028,0.06,-0.022,-0.024,-0.022,-0.03,-0.03,-0.022,-0.026,-0.023,-0.023,-0.022,-0.022,-0.022,-0.099,-0.023,-0.021,-0.044,-0.026,-0.027,-0.024
550,-0.021,-0.018,-0.023,-0.028,0.059,-0.022,-0.024,-0.022,-0.029,-0.03,-0.022,-0.025,-0.023,-0.024,-0.022,-0.023,-0.023,-0.097,-0.025,-0.022,-0.047,-0.024,-0.027,-0.026
551,-0.02,-0.019,-0.022,-0.026,0.055,-0.02,-0.023,-0.021,-0.026,-0.028,-0.022,-0.024,-0.022,-0.023,-0.021,-0.022,-0.022,-0.092,-0.023,-0.021,-0.046,-0.023,-0.025,-0.025
552,-0.019,-0.018,-0.02,-0.022,0.055,-0.018,-0.02,-0.019,-0.024,-0.024,-0.02,-0.021,-0.02,-0.02,-0.019,-0.019,-0.02,-0.087,-0.02,-0.019,-0.04,-0.023,-0.022,-0.023
553,-0.018,-0.018,-0.019,-0.019,0.058,-0.016,-0.019,-0.017,-0.023,-0.024,-0.019,-0.02,-0.017,-0.019,-0.018,-0.018,-0.019,-0.085,-0.019,-0.017,-0.037,-0.021,-0.022,-0.021
554,-0.02,-0.02,-0.021,-0.021,0.063,-0.018,-0.021,-0.019,-0.025,-0.026,-0.022,-0.022,-0.019,-0.021,-0.02,-0.021,-0.022,-0.089,-0.021,-0.019,-0.041,-0.022,-0.025,-0.023
555,-0.021,-0.021,-0.022,-0.022,0.064,-0.02,-0.022,-0.021,-0.026,-0.027,-0.024,-0.023,-0.021,-0.023,-0.02,-0.022,-0.023,-0.093,-0.021,-0.02,-0.044,-0.022,-0.026,-0.024
556,-0.021,-0.021,-0.024,-0.024,0.061,-0.021,-0.023,-0.021,-0.026,-0.027,-0.023,-0.023,-0.021,-0.023,-0.019,-0.022,-0.021,-0.094,-0.02,-0.019,-0.046,-0.02,-0.025,-0.023
557,-0.022,-0.02,-0.022,-0.025,0.055,-0.02,-0.022,-0.02,-0.026,-0.027,-0.02,-0.021,-0.02,-0.021,-0.018,-0.02,-0.02,-0.089,-0.018,-0.016,-0.044,-0.019,-0.022,-0.022
558,-0.022,-0.019,-0.022,-0.026,0.057,-0.018,-0.022,-0.018,-0.025,-0.026,-0.019,-0.021,-0.019,-0.02,-0.018,-0.019,-0.019,-0.086,-0.017,-0.015,-0.047,-0.02,-0.022,-0.022
559,-0.022,-0.019,-0.023,-0.026,0.057,-0.02,-0.023,-0.02,-0.026,-0.027,-0.022,-0.023,-0.021,-0.022,-0.02,-0.021,-0.021,-0.087,-0.02,-0.017,-0.048,-0.023,-0.024,-0.024
560,-0.021,-0.018,-0.023,-0.024,0.058,-0.02,-0.022,-0.021,-0.025,-0.025,-0.021,-0.022,-0.022,-0.022,-0.02,-0.022,-0.022,-0.088,-0.02,-0.017,-0.045,-0.021,-0.024,-0.023
561,-0.021,-0.018,-0.023,-0.025,0.058,-0.02,-0.021,-0.02,-0.026,-0.025,-0.022,-0.022,-0.022,-0.021,-0.02,-0.022,-0.021,-0.086,-0.02,-0.017,-0.041,-0.021,-0.023,-0.023
562,-0.023,-0.019,-0.023,-0.026,0.056,-0.02,-0.021,-0.02,-0.026,-0.027,-0.021,-0.024,-0.021,-0.02,-0.019,-0.02,-0.02,-0.086,-0.02,-0.017,-0.033,-0.021,-0.021,-0.022
563,-0.024,-0.021,-0.024,-0.026,0.053,-0.021,-0.022,-0.022,-0.027,-0.028,-0.022,-0.025,-0.021,-0.022,-0.021,-0.021,-0.02,-0.085,-0.021,-0.019,-0.034,-0.023,-0.021,-0.024
564,-0.026,-0.023,-0.025,-0.029,0.051,-0.023,-0.024,-0.024,-0.029,-0.031,-0.024,-0.029,-0.023,-0.025,-0.025,-0.023,-0.023,-0.086,-0.024,-0.022,-0.037,-0.026,-0.024,-0.027
565,-0.026,-0.024,-0.025,-0.03,0.049,-0.022,-0.024,-0.023,-0.031,-0.03,-0.025,-0.028,-0.022,-0.026,-0.025,-0.023,-0.023,-0.084,-0.024,-0.023,-0.036,-0.025,-0.026,-0.026
566,-0.026,-0.024,-0.025,-0.029,0.047,-0.021,-0.024,-0.022,-0.03,-0.029,-0.024,-0.026,-0.021,-0.025,-0.024,-0.021,-0.02,-0.081,-0.023,-0.022,-0.032,-0.024,-0.026,-0.025
567,-0.023,-0.021,-0.023,-0.027,0.048,-0.02,-0.022,-0.02,-0.029,-0.028,-0.021,-0.023,-0.02,-0.023,-0.022,-0.02,-0.019,-0.079,-0.021,-0.022,-0.032,-0.023,-0.024,-0.023
568,-0.024,-0.02,-0.022,-0.025,0.05,-0.02,-0.022,-0.019,-0.027,-0.028,-0.019,-0.021,-0.021,-0.022,-0.021,-0.02,-0.019,-0.078,-0.02,-0.02,-0.033,-0.022,-0.023,-0.021
569,-0.025,-0.02,-0.021,-0.027,0.055,-0.021,-0.022,-0.019,-0.026,-0.028,-0.019,-0.022,-0.021,-0.02,-0.02,-0.019,-0.019,-0.081,-0.02,-0.019,-0.034,-0.021,-0.022,-0.021
570,-0.025,-0.021,-0.022,-0.027,0.052,-0.021,-0.022,-0.02,-0.027,-0.027,-0.021,-0.025,-0.021,-0.022,-0.019,-0.021,-0.019,-0.08,-0.021,-0.019,-0.037,-0.021,-0.023,-0.022
571,-0.021,-0.019,-0.021,-0.025,0.048,-0.019,-0.02,-0.018,-0.025,-0.025,-0.02,-0.024,-0.019,-0.021,-0.019,-0.018,-0.018,-0.077,-0.019,-0.019,-0.036,-0.02,-0.021,-0.022
572,-0.02,-0.016,-0.019,-0.024,0.047,-0.017,-0.019,-0.017,-0.025,-0.025,-0.019,-0.023,-0.018,-0.021,-0.018,-0.018,-0.017,-0.074,-0.018,-0.018,-0.034,-0.019,-0.02,-0.021
573,-0.024,-0.018,-0.022,-0.03,0.044,-0.021,-0.022,-0.02,-0.028,-0.029,-0.021,-0.025,-0.021,-0.022,-0.02,-0.021,-0.021,-0.079,-0.021,-0.02,-0.034,-0.023,-0.022,-0.023
574,-0.027,-0.021,-0.024,-0.034,0.045,-0.022,-0.025,-0.022,-0.031,-0.033,-0.023,-0.027,-0.023,-0.025,-0.021,-0.023,-0.023,-0.078,-0.023,-0.022,-0.036,-0.027,-0.026,-0.026
575,-0.03,-0.025,-0.026,-0.038,0.04,-0.025,-0.028,-0.025,-0.035,-0.036,-0.026,-0.031,-0.026,-0.027,-0.024,-0.026,-0.025,-0.08,-0.026,-0.025,-0.038,-0.031,-0.029,-0.028
576,-0.028,-0.025,-0.025,-0.035,0.041,-0.024,-0.027,-0.023,-0.033,-0.035,-0.025,-0.03,-0.026,-0.026,-0.023,-0.025,-0.025,-0.077,-0.026,-0.025,-0.038,-0.029,-0.029,-0.027
577,-0.025,-0.022,-0.024,-0.03,0.047,-0.023,-0.024,-0.021,-0.031,-0.031,-0.024,-0.026,-0.024,-0.025,-0.022,-0.024,-0.023,-0.074,-0.023,-0.023,-0.039,-0.026,-0.027,-0.026
578,-0.021,-0.018,-0.022,-0.025,0.052,-0.02,-0.021,-0.019,-0.028,-0.027,-0.022,-0.021,-0.021,-0.022,-0.021,-0.022,-0.021,-0.072,-0.021,-0.021,-0.038,-0.023,-0.023,-0.024
579,-0.016,-0.014,-0.018,-0.02,0.052,-0.016,-0.017,-0.016,-0.022,-0.022,-0.018,-0.016,-0.017,-0.019,-0.017,-0.018,-0.017,-0.07,-0.016,-0.017,-0.035,-0.019,-0.019,-0.02
580,-0.015,-0.014,-0.017,-0.017,0.045,-0.015,-0.017,-0.014,-0.019,-0.02,-0.017,-0.013,-0.016,-0.017,-0.015,-0.017,-0.016,-0.071,-0.016,-0.015,-0.031,-0.017,-0.017,-0.019
581,-0.016,-0.017,-0.017,-0.017,0.041,-0.015,-0.017,-0.015,-0.018,-0.019,-0.016,-0.015,-0.016,-0.018,-0.016,-0.017,-0.015,-0.069,-0.016,-0.015,-0.024,-0.017,-0.016,-0.019
582,-0.019,-0.02,-0.019,-0.022,0.04,-0.015,-0.017,-0.015,-0.02,-0.019,-0.016,-0.019,-0.016,-0.017,-0.016,-0.017,-0.016,-0.063,-0.016,-0.016,-0.019,-0.017,-0.016,-0.019
583,-0.021,-0.02,-0.021,-0.026,0.038,-0.018,-0.019,-0.017,-0.024,-0.023,-0.017,-0.022,-0.017,-0.019,-0.018,-0.018,-0.017,-0.062,-0.017,-0.018,-0.023,-0.019,-0.019,-0.02
584,-0.025,-0.022,-0.024,-0.031,0.037,-0.02,-0.021,-0.019,-0.029,-0.03,-0.02,-0.026,-0.021,-0.023,-0.019,-0.02,-0.02,-0.067,-0.02,-0.021,-0.029,-0.022,-0.024,-0.023
585,-0.024,-0.021,-0.021,-0.032,0.039,-0.017,-0.02,-0.018,-0.029,-0.031,-0.02,-0.026,-0.019,-0.022,-0.018,-0.018,-0.018,-0.064,-0.019,-0.02,-0.03,-0.021,-0.023,-0.022
586,-0.021,-0.018,-0.016,-0.029,0.041,-0.013,-0.016,-0.015,-0.026,-0.028,-0.017,-0.023,-0.014,-0.018,-0.015,-0.015,-0.014,-0.058,-0.017,-0.017,-0.026,-0.018,-0.02,-0.018
587,-0.015,-0.01,-0.011,-0.021,0.041,-0.008,-0.011,-0.009,-0.02,-0.02,-0.011,-0.015,-0.008,-0.011,-0.01,-0.009,-0.008,-0.052,-0.013,-0.011,-0.017,-0.012,-0.013,-0.011
588,-0.012,-0.008,-0.011,-0.015,0.038,-0.008,-0.009,-0.008,-0.018,-0.018,-0.009,-0.011,-0.008,-0.011,-0.009,-0.009,-0.008,-0.05,-0.012,-0.009,-0.018,-0.011,-0.012,-0.011
589,-0.013,-0.012,-0.014,-0.015,0.031,-0.011,-0.012,-0.011,-0.019,-0.019,-0.013,-0.013,-0.012,-0.014,-0.012,-0.013,-0.013,-0.052,-0.014,-0.013,-0.017,-0.017,-0.015,-0.016
590,-0.012,-0.015,-0.015,-0.013,0.029,-0.012,-0.013,-0.012,-0.018,-0.018,-0.013,-0.013,-0.013,-0.015,-0.012,-0.013,-0.014,-0.054,-0.015,-0.016,-0.014,-0.02,-0.016,-0.018
591,-0.011,-0.013,-0.013,-0.011,0.025,-0.01,-0.012,-0.01,-0.015,-0.016,-0.012,-0.013,-0.013,-0.014,-0.01,-0.011,-0.012,-0.053,-0.014,-0.014,-0.01,-0.018,-0.015,-0.015
592,-0.01,-0.011,-0.012,-0.011,0.023,-0.01,-0.013,-0.01,-0.014,-0.016,-0.011,-0.012,-0.013,-0.014,-0.01,-0.011,-0.011,-0.052,-0.011,-0.011,-0.008,-0.015,-0.014,-0.013
593,-0.013,-0.013,-0.013,-0.017,0.021,-0.014,-0.015,-0.012,-0.018,-0.02,-0.013,-0.015,-0.015,-0.016,-0.014,-0.014,-0.014,-0.047,-0.012,-0.014,-0.01,-0.016,-0.015,-0.015
594,-0.016,-0.015,-0.014,-0.02,0.023,-0.016,-0.017,-0.013,-0.021,-0.02,-0.013,-0.017,-0.015,-0.016,-0.015,-0.014,-0.015,-0.043,-0.013,-0.015,-0.007,-0.016,-0.016,-0.016
595,-0.014,-0.012,-0.013,-0.018,0.027,-0.013,-0.013,-0.01,-0.02,-0.017,-0.011,-0.016,-0.011,-0.013,-0.012,-0.012,-0.013,-0.045,-0.013,-0.012,-0.009,-0.015,-0.013,-0.014
596,-0.011,-0.007,-0.009,-0.013,0.032,-0.008,-0.009,-0.006,-0.018,-0.015,-0.01,-0.015,-0.009,-0.011,-0.009,-0.01,-0.01,-0.044,-0.012,-0.01,-0.005,-0.014,-0.012,-0.013
597,-0.013,-0.01,-0.011,-0.016,0.034,-0.008,-0.011,-0.009,-0.02,-0.02,-0.012,-0.018,-0.011,-0.015,-0.013,-0.014,-0.013,-0.043,-0.015,-0.014,-0.007,-0.019,-0.015,-0.019
598,-0.016,-0.014,-0.014,-0.021,0.035,-0.011,-0.013,-0.013,-0.022,-0.025,-0.015,-0.021,-0.014,-0.019,-0.017,-0.017,-0.016,-0.045,-0.018,-0.018,-0.011,-0.023,-0.019,-0.023
599,-0.016,-0.017,-0.015,-0.023,0.027,-0.013,-0.015,-0.014,-0.021,-0.024,-0.016,-0.022,-0.015,-0.02,-0.017,-0.018,-0.016,-0.045,-0.017,-0.017,-0.013,-0.021,-0.019,-0.022
600,-0.015,-0.016,-0.015,-0.023,0.014,-0.013,-0.015,-0.014,-0.02,-0.022,-0.016,-0.021,-0.014,-0.017,-0.014,-0.016,-0.015,-0.041,-0.016,-0.014,-0.013,-0.018,-0.017,-0.018
601,-0.015,-0.016,-0.015,-0.023,0.008,-0.013,-0.016,-0.015,-0.02,-0.02,-0.018,-0.02,-0.015,-0.015,-0.013,-0.016,-0.015,-0.033,-0.016,-0.014,-0.011,-0.017,-0.017,-0.016
602,-0.012,-0.014,-0.015,-0.022,0.01,-0.013,-0.016,-0.015,-0.02,-0.02,-0.016,-0.018,-0.015,-0.015,-0.012,-0.016,-0.016,-0.03,-0.016,-0.015,-0.011,-0.017,-0.016,-0.016
603,-0.008,-0.011,-0.011,-0.019,0.013,-0.011,-0.013,-0.012,-0.019,-0.019,-0.012,-0.018,-0.014,-0.014,-0.011,-0.013,-0.014,-0.03,-0.014,-0.016,-0.007,-0.017,-0.014,-0.016
604,-0.006,-0.01,-0.008,-0.015,0.011,-0.008,-0.01,-0.008,-0.019,-0.018,-0.011,-0.016,-0.01,-0.013,-0.01,-0.009,-0.01,-0.029,-0.011,-0.014,-0.003,-0.017,-0.012,-0.014
605,-0.008,-0.011,-0.008,-0.013,0.008,-0.007,-0.009,-0.008,-0.019,-0.017,-0.012,-0.016,-0.009,-0.013,-0.01,-0.008,-0.008,-0.029,-0.011,-0.013,-0.002,-0.016,-0.011,-0.012
606,-0.01,-0.012,-0.009,-0.015,0.009,-0.008,-0.01,-0.009,-0.019,-0.016,-0.012,-0.015,-0.01,-0.014,-0.009,-0.008,-0.008,-0.029,-0.009,-0.011,-0.006,-0.014,-0.011,-0.013
607,-0.014,-0.011,-0.012,-0.018,0.009,-0.008,-0.011,-0.009,-0.017,-0.017,-0.01,-0.016,-0.01,-0.011,-0.007,-0.009,-0.008,-0.022,-0.008,-0.009,-0.005,-0.012,-0.01,-0.012
608,-0.013,-0.01,-0.009,-0.016,0.007,-0.005,-0.009,-0.006,-0.014,-0.015,-0.008,-0.014,-0.008,-0.007,-0.004,-0.007,-0.005,-0.009,-0.006,-0.008,0.001,-0.009,-0.008,-0.009
609,-0.009,-0.007,-0.007,-0.011,0.003,-0.004,-0.007,-0.004,-0.012,-0.013,-0.008,-0.01,-0.007,-0.005,-0.004,-0.006,-0.004,0.0,-0.007,-0.008,0.004,-0.007,-0.007,-0.007
610,-0.007,-0.006,-0.006,-0.006,0.006,-0.004,-0.007,-0.005,-0.013,-0.011,-0.008,-0.007,-0.006,-0.006,-0.005,-0.005,-0.005,-0.002,-0.008,-0.008,0.001,-0.007,-0.009,-0.006
611,-0.01,-0.008,-0.01,-0.01,0.007,-0.008,-0.009,-0.008,-0.016,-0.015,-0.009,-0.011,-0.008,-0.01,-0.008,-0.008,-0.008,-0.01,-0.011,-0.011,-0.005,-0.011,-0.012,-0.01
612,-0.013,-0.011,-0.013,-0.016,0.004,-0.011,-0.012,-0.01,-0.019,-0.019,-0.01,-0.013,-0.01,-0.012,-0.009,-0.009,-0.01,-0.019,-0.012,-0.013,-0.004,-0.015,-0.013,-0.013
613,-0.011,-0.008,-0.01,-0.018,-0.001,-0.009,-0.01,-0.008,-0.017,-0.018,-0.009,-0.014,-0.008,-0.011,-0.007,-0.008,-0.009,-0.016,-0.009,-0.012,0.005,-0.013,-0.012,-0.011
614,-0.004,-0.002,-0.004,-0.013,0.0,-0.003,-0.005,-0.002,-0.012,-0.013,-0.005,-0.009,-0.004,-0.006,-0.003,-0.005,-0.005,-0.005,-0.005,-0.008,0.015,-0.01,-0.008,-0.006
615,0.0,0.0,-0.002,-0.007,0.001,0.0,-0.002,0.001,-0.008,-0.008,-0.003,-0.008,-0.002,-0.003,0.001,-0.002,-0.003,0.004,-0.001,-0.006,0.021,-0.007,-0.005,-0.003
616,0.0,-0.002,-0.001,-0.004,0.006,0.001,0.0,0.003,-0.007,-0.007,-0.001,-0.008,-0.001,-0.001,0.003,0.0,0.001,0.008,0.002,-0.003,0.021,-0.005,0.0,-0.001
617,-0.001,-0.003,-0.001,-0.003,0.008,0.002,-0.001,0.003,-0.007,-0.008,0.001,-0.008,0.0,-0.002,0.002,0.002,0.001,0.007,0.001,-0.003,0.019,-0.005,0.002,-0.002
618,-0.002,-0.003,-0.001,-0.003,0.005,0.002,0.0,0.002,-0.005,-0.006,0.001,-0.006,0.001,-0.002,0.0,0.001,0.001,0.007,-0.001,-0.004,0.016,-0.004,0.002,-0.003
619,-0.003,-0.006,-0.002,-0.006,-0.008,0.001,0.0,0.001,-0.003,-0.003,0.001,-0.004,0.001,-0.003,0.0,0.0,0.0,0.006,-0.003,-0.006,0.017,-0.003,-0.001,-0.004
620,-0.002,-0.006,-0.001,-0.005,-0.02,0.002,0.0,0.003,-0.001,-0.002,0.002,-0.001,0.002,-0.001,0.002,0.001,0.001,0.01,-0.001,-0.004,0.016,0.0,-0.001,-0.003
621,-0.001,-0.002,0.001,-0.003,-0.022,0.005,0.002,0.005,-0.001,-0.003,0.003,0.001,0.003,0.002,0.005,0.003,0.004,0.015,0.0,0.0,0.014,0.001,0.0,-0.001
622,0.002,0.003,0.005,0.001,-0.016,0.008,0.005,0.007,-0.001,-0.003,0.004,0.002,0.005,0.003,0.006,0.004,0.005,0.018,0.001,0.001,0.01,0.0,0.001,0.0
623,0.003,0.003,0.006,0.002,-0.012,0.008,0.004,0.007,0.0,-0.002,0.002,0.002,0.005,0.001,0.004,0.004,0.005,0.019,0.001,-0.002,0.008,-0.002,0.001,-0.002
624,0.002,-0.001,0.004,0.0,-0.018,0.005,0.003,0.005,-0.004,-0.004,-0.001,-0.002,0.002,-0.003,0.0,0.004,0.003,0.019,-0.001,-0.005,0.012,-0.004,-0.001,-0.003
625,0.0,-0.004,0.002,-0.002,-0.026,0.003,0.001,0.003,-0.007,-0.007,-0.002,-0.005,0.0,-0.003,-0.002,0.001,0.001,0.021,-0.002,-0.005,0.02,-0.005,-0.002,-0.004
626,-0.003,-0.004,-0.001,-0.001,-0.034,0.001,0.0,0.002,-0.01,-0.01,-0.003,-0.005,-0.002,-0.003,-0.002,-0.001,-0.001,0.021,-0.002,-0.004,0.025,-0.007,-0.004,-0.005
627,-0.004,-0.004,-0.004,-0.001,-0.039,-0.002,-0.003,0.0,-0.009,-0.01,-0.005,-0.004,-0.003,-0.006,-0.003,-0.004,-0.003,0.02,-0.003,-0.006,0.022,-0.007,-0.006,-0.007
628,-0.005,-0.006,-0.005,-0.003,-0.037,-0.004,-0.005,-0.002,-0.008,-0.009,-0.006,-0.005,-0.005,-0.006,-0.004,-0.004,-0.003,0.019,-0.005,-0.007,0.02,-0.008,-0.006,-0.008
629,-0.007,-0.008,-0.004,-0.007,-0.032,-0.003,-0.006,-0.002,-0.009,-0.01,-0.005,-0.007,-0.005,-0.005,-0.003,-0.004,-0.003,0.022,-0.005,-0.008,0.019,-0.009,-0.006,-0.008
630,-0.008,-0.008,-0.004,-0.009,-0.032,-0.003,-0.006,-0.003,-0.01,-0.009,-0.004,-0.008,-0.004,-0.006,-0.002,-0.003,-0.003,0.022,-0.004,-0.008,0.015,-0.007,-0.006,-0.007
631,-0.007,-0.007,-0.004,-0.008,-0.034,-0.002,-0.005,-0.002,-0.01,-0.007,-0.003,-0.007,-0.004,-0.005,-0.001,-0.003,-0.004,0.022,-0.004,-0.008,0.016,-0.007,-0.005,-0.005
632,-0.004,-0.005,-0.004,-0.005,-0.033,-0.001,-0.003,0.0,-0.007,-0.005,-0.002,-0.005,-0.003,-0.002,0.001,-0.002,-0.003,0.023,-0.003,-0.009,0.018,-0.007,-0.005,-0.004
633,-0.004,-0.003,-0.002,-0.003,-0.034,0.001,-0.001,0.001,-0.007,-0.004,-0.001,-0.004,-0.002,-0.001,0.001,-0.001,-0.001,0.023,-0.004,-0.01,0.019,-0.007,-0.004,-0.005
634,-0.002,-0.002,-0.001,-0.003,-0.036,0.001,0.0,0.001,-0.007,-0.006,0.0,-0.003,0.0,-0.003,0.0,0.0,0.0,0.024,-0.002,-0.009,0.022,-0.006,-0.003,-0.005
635,-0.002,-0.002,-0.001,-0.004,-0.036,0.001,-0.001,0.001,-0.007,-0.007,0.0,-0.002,0.0,-0.002,0.002,0.001,0.001,0.026,0.0,-0.005,0.027,-0.005,-0.002,-0.002
636,0.001,-0.001,-0.001,-0.004,-0.03,0.001,0.0,0.002,-0.004,-0.005,0.0,0.0,0.001,0.001,0.005,0.003,0.002,0.03,0.002,-0.002,0.033,-0.003,0.0,0.001
637,0.002,-0.002,0.0,-0.003,-0.029,0.0,0.0,0.002,-0.001,-0.004,-0.002,0.002,0.001,0.002,0.006,0.003,0.002,0.031,0.001,-0.001,0.026,0.0,0.0,0.002
638,0.003,-0.003,-0.001,-0.005,-0.028,0.0,-0.001,0.003,-0.001,-0.002,-0.003,0.001,0.0,0.001,0.004,0.002,0.001,0.027,0.001,0.0,0.017,0.0,-0.001,0.001
639,0.001,-0.003,-0.001,-0.006,-0.025,0.0,-0.001,0.003,-0.002,-0.001,-0.002,-0.001,0.001,0.002,0.005,0.003,0.003,0.03,0.003,0.0,0.02,0.0,0.001,0.002
640,-0.001,0.0,0.0,-0.006,-0.018,0.002,0.001,0.005,-0.004,-0.004,-0.001,-0.002,0.003,0.003,0.006,0.006,0.006,0.039,0.004,0.0,0.029,-0.001,0.005,0.004
641,-0.004,-0.001,0.0,-0.007,-0.021,0.003,0.001,0.004,-0.006,-0.007,0.0,-0.005,0.003,0.001,0.003,0.005,0.005,0.039,0.0,-0.004,0.028,-0.004,0.003,0.002
642,-0.004,0.0,0.0,-0.006,-0.024,0.004,0.001,0.005,-0.007,-0.008,0.0,-0.006,0.003,-0.001,0.001,0.004,0.003,0.032,-0.002,-0.006,0.02,-0.006,0.001,0.0
643,-0.003,0.002,0.0,-0.005,-0.028,0.004,0.001,0.004,-0.008,-0.008,0.001,-0.006,0.003,-0.003,0.001,0.003,0.003,0.029,-0.002,-0.005,0.016,-0.005,-0.001,-0.003
644,-0.003,0.001,0.001,-0.007,-0.03,0.002,0.001,0.003,-0.01,-0.01,0.0,-0.007,0.003,-0.003,0.002,0.002,0.004,0.038,-0.002,-0.004,0.021,-0.004,-0.002,-0.002
645,-0.004,-0.005,-0.002,-0.008,-0.033,-0.001,-0.001,0.0,-0.012,-0.011,-0.002,-0.008,0.0,-0.002,0.0,0.001,0.002,0.044,-0.003,-0.005,0.027,-0.005,-0.004,-0.001
646,-0.002,-0.008,-0.003,-0.006,-0.038,-0.003,-0.003,-0.002,-0.01,-0.01,-0.004,-0.008,-0.002,-0.004,-0.002,-0.002,-0.001,0.041,-0.003,-0.007,0.033,-0.005,-0.005,-0.002
647,0.0,-0.005,-0.003,-0.003,-0.042,-0.003,-0.003,-0.003,-0.007,-0.006,-0.004,-0.006,-0.001,-0.004,-0.003,-0.002,-0.001,0.037,-0.001,-0.005,0.033,-0.003,-0.004,-0.003
648,0.002,-0.001,-0.001,0.0,-0.045,0.0,-0.001,-0.001,-0.005,-0.003,-0.002,-0.003,0.001,-0.002,0.0,0.0,0.001,0.041,0.001,-0.004,0.029,0.0,-0.002,-0.002
649,0.001,0.002,0.002,0.001,-0.045,0.004,0.002,0.003,-0.003,0.0,0.0,0.002,0.003,0.001,0.003,0.004,0.005,0.044,0.003,-0.002,0.027,0.003,0.001,0.0
650,0.0,0.003,0.002,0.0,-0.045,0.004,0.003,0.005,-0.002,0.0,0.001,0.004,0.004,0.002,0.003,0.005,0.005,0.039,0.001,-0.002,0.023,0.001,0.001,0.0
651,-0.001,0.001,0.001,-0.003,-0.048,0.003,0.001,0.005,-0.004,-0.003,-0.001,0.002,0.004,0.0,0.001,0.003,0.003,0.034,-0.003,-0.006,0.018,-0.004,0.0,-0.003
652,-0.001,0.0,0.001,-0.004,-0.046,0.003,0.001,0.005,-0.006,-0.004,-0.001,0.0,0.004,-0.002,0.001,0.002,0.004,0.037,-0.003,-0.008,0.022,-0.005,0.0,-0.004
653,-0.001,-0.001,0.004,-0.001,-0.036,0.005,0.005,0.006,-0.006,-0.001,0.003,0.001,0.005,-0.001,0.003,0.004,0.007,0.044,0.0,-0.005,0.032,-0.003,0.004,-0.001
654,-0.001,-0.002,0.003,0.001,-0.03,0.006,0.006,0.006,-0.002,0.0,0.005,0.004,0.006,0.001,0.005,0.006,0.007,0.05,0.001,-0.002,0.038,-0.001,0.006,0.002
655,-0.002,-0.002,0.003,-0.001,-0.029,0.006,0.005,0.006,0.0,-0.002,0.006,0.004,0.006,0.003,0.007,0.006,0.007,0.054,0.001,0.0,0.039,0.001,0.006,0.004
656,-0.004,-0.004,0.001,-0.004,-0.03,0.005,0.001,0.005,-0.001,-0.004,0.004,0.002,0.005,0.004,0.006,0.004,0.005,0.054,0.001,0.0,0.037,0.001,0.003,0.003
657,-0.003,-0.006,-0.002,-0.004,-0.034,0.002,-0.003,0.002,-0.004,-0.006,0.0,0.0,0.002,0.002,0.002,0.002,0.003,0.047,0.0,-0.002,0.038,-0.001,0.0,-0.001
658,-0.001,-0.006,-0.002,0.001,-0.043,0.0,-0.004,0.002,-0.003,-0.002,-0.002,0.0,0.0,0.0,0.002,0.001,0.001,0.042,0.001,-0.002,0.04,0.0,-0.001,-0.002
659,0.006,-0.001,0.002,0.007,-0.05,0.003,0.001,0.006,0.004,0.006,0.001,0.005,0.004,0.003,0.007,0.005,0.005,0.04,0.006,0.002,0.041,0.005,0.004,0.003
660,0.008,0.002,0.005,0.007,-0.046,0.007,0.006,0.009,0.007,0.009,0.005,0.006,0.007,0.004,0.009,0.009,0.007,0.038,0.008,0.005,0.045,0.008,0.007,0.005
661,0.007,0.0,0.004,0.003,-0.036,0.007,0.006,0.008,0.003,0.006,0.004,0.001,0.006,0.002,0.006,0.007,0.006,0.036,0.006,0.002,0.052,0.006,0.006,0.003
662,0.002,-0.004,0.002,-0.004,-0.032,0.005,0.002,0.003,-0.005,-0.004,0.0,-0.006,0.003,-0.001,0.003,0.002,0.003,0.038,0.001,-0.004,0.056,-0.001,0.001,-0.001
663,0.001,-0.004,0.002,-0.007,-0.031,0.004,0.002,0.001,-0.007,-0.007,0.0,-0.007,0.003,-0.001,0.002,0.002,0.003,0.037,0.0,-0.006,0.051,-0.003,0.0,-0.001
664,-0.003,-0.005,-0.001,-0.01,-0.035,0.002,-0.001,-0.001,-0.007,-0.01,-0.002,-0.006,0.002,-0.004,0.0,0.001,0.0,0.033,-0.002,-0.008,0.038,-0.005,0.0,-0.003
665,-0.004,-0.005,-0.004,-0.012,-0.038,-0.001,-0.004,-0.002,-0.007,-0.009,-0.003,-0.007,0.0,-0.005,-0.002,-0.001,-0.001,0.033,-0.003,-0.007,0.03,-0.004,-0.001,-0.005
666,-0.007,-0.006,-0.006,-0.014,-0.038,-0.003,-0.005,-0.003,-0.009,-0.01,-0.005,-0.01,-0.004,-0.006,-0.002,-0.003,-0.002,0.037,-0.003,-0.007,0.03,-0.004,-0.004,-0.005
667,-0.008,-0.005,-0.005,-0.012,-0.032,-0.003,-0.004,-0.002,-0.011,-0.01,-0.005,-0.009,-0.004,-0.005,-0.001,-0.002,-0.002,0.038,-0.002,-0.006,0.034,-0.004,-0.005,-0.005
668,-0.008,-0.004,-0.005,-0.01,-0.032,-0.004,-0.004,-0.003,-0.013,-0.012,-0.005,-0.009,-0.004,-0.006,-0.002,-0.003,-0.003,0.037,-0.003,-0.007,0.037,-0.009,-0.006,-0.007
669,-0.008,-0.003,-0.004,-0.007,-0.035,-0.004,-0.004,-0.003,-0.012,-0.01,-0.004,-0.006,-0.002,-0.005,-0.003,-0.002,-0.002,0.036,-0.002,-0.005,0.042,-0.008,-0.005,-0.006
670,-0.005,-0.004,-0.002,-0.007,-0.034,-0.002,-0.003,0.0,-0.008,-0.007,-0.003,-0.005,0.0,-0.003,0.0,0.001,0.002,0.043,0.002,0.0,0.044,-0.003,-0.001,-0.003
671,-0.004,-0.002,-0.002,-0.006,-0.03,-0.002,-0.003,0.002,-0.006,-0.004,-0.001,-0.004,0.001,-0.001,0.002,0.003,0.003,0.05,0.004,0.001,0.042,0.0,0.002,-0.001
672,-0.001,-0.001,-0.001,-0.005,-0.027,-0.001,-0.002,0.003,-0.004,-0.002,0.0,-0.003,0.003,-0.001,0.002,0.004,0.004,0.053,0.004,0.001,0.036,-0.001,0.004,0.0
673,0.002,0.0,0.003,0.001,-0.025,0.003,0.002,0.006,-0.001,0.003,0.004,0.002,0.006,0.001,0.004,0.004,0.007,0.051,0.006,0.003,0.039,0.001,0.008,0.001
674,0.003,0.001,0.005,0.005,-0.025,0.004,0.004,0.007,-0.001,0.004,0.005,0.005,0.007,0.002,0.007,0.007,0.009,0.045,0.006,0.003,0.04,0.002,0.008,0.003
675,0.002,0.002,0.006,0.006,-0.031,0.006,0.005,0.006,-0.001,0.005,0.004,0.006,0.006,0.003,0.007,0.007,0.008,0.039,0.004,0.001,0.043,0.001,0.007,0.003
676,0.004,0.004,0.007,0.005,-0.037,0.005,0.004,0.006,0.0,0.003,0.003,0.004,0.005,0.003,0.006,0.006,0.006,0.035,0.003,0.0,0.038,0.0,0.005,0.003
677,0.006,0.006,0.006,0.005,-0.037,0.005,0.004,0.005,0.001,0.001,0.002,0.003,0.004,0.002,0.005,0.003,0.005,0.035,0.004,0.0,0.034,0.0,0.004,0.001
678,0.004,0.002,0.001,0.003,-0.035,0.002,0.0,0.002,-0.001,-0.002,-0.001,-0.002,0.0,-0.002,0.001,0.0,0.0,0.029,0.0,-0.004,0.03,-0.002,-0.001,-0.004
679,0.002,0.001,0.001,0.001,-0.033,0.002,0.001,0.002,-0.002,-0.001,-0.001,-0.004,0.0,-0.003,0.0,0.0,0.0,0.025,-0.001,-0.005,0.035,-0.003,0.0,-0.004
680,0.003,0.003,0.006,0.001,-0.038,0.006,0.005,0.006,-0.001,0.002,0.002,-0.003,0.004,0.0,0.003,0.003,0.004,0.033,0.002,-0.003,0.043,-0.001,0.004,0.0
681,0.006,0.004,0.008,0.001,-0.042,0.008,0.008,0.01,0.0,0.002,0.005,-0.001,0.007,0.005,0.009,0.007,0.008,0.045,0.005,0.001,0.042,0.002,0.006,0.003
682,0.007,0.0,0.005,0.002,-0.046,0.006,0.005,0.008,0.001,-0.001,0.004,-0.003,0.006,0.003,0.008,0.005,0.006,0.042,0.003,0.001,0.035,0.003,0.004,0.0
683,0.005,-0.001,0.002,0.003,-0.039,0.003,0.002,0.005,-0.001,-0.002,0.003,-0.003,0.004,0.0,0.004,0.004,0.004,0.039,0.002,0.0,0.033,0.002,0.002,-0.002
684,0.001,-0.001,0.001,0.003,-0.032,0.003,0.001,0.004,-0.004,-0.002,0.003,-0.002,0.004,0.0,0.003,0.004,0.005,0.042,0.003,0.001,0.034,0.001,0.002,-0.001
685,0.002,0.001,0.004,0.003,-0.027,0.007,0.005,0.006,-0.002,0.001,0.006,0.003,0.006,0.004,0.008,0.008,0.008,0.049,0.006,0.003,0.035,0.002,0.005,0.005
686,0.005,0.001,0.006,0.001,-0.032,0.008,0.007,0.009,0.001,0.002,0.008,0.002,0.007,0.007,0.012,0.01,0.009,0.049,0.008,0.005,0.034,0.004,0.006,0.007
687,0.007,0.003,0.007,0.0,-0.033,0.008,0.006,0.009,0.003,0.002,0.008,0.001,0.007,0.006,0.011,0.009,0.009,0.044,0.009,0.006,0.035,0.004,0.004,0.007
688,0.004,0.003,0.006,-0.001,-0.032,0.006,0.004,0.006,0.0,0.001,0.005,-0.004,0.005,0.004,0.008,0.005,0.007,0.038,0.006,0.003,0.032,0.001,0.001,0.004
689,0.0,0.003,0.008,-0.003,-0.025,0.007,0.005,0.006,-0.003,-0.001,0.004,-0.006,0.006,0.005,0.006,0.005,0.008,0.038,0.005,0.0,0.033,-0.002,0.001,0.003
690,-0.004,0.001,0.006,-0.007,-0.017,0.005,0.004,0.005,-0.008,-0.005,0.002,-0.008,0.004,0.004,0.004,0.004,0.006,0.037,0.004,-0.001,0.027,-0.004,0.001,0.002
691,-0.001,0.008,0.008,-0.002,-0.01,0.008,0.006,0.009,-0.004,0.0,0.006,-0.002,0.007,0.006,0.006,0.007,0.008,0.042,0.007,0.002,0.022,0.0,0.005,0.004
692,0.001,0.01,0.007,0.0,-0.011,0.007,0.007,0.009,-0.002,0.002,0.006,0.0,0.009,0.004,0.006,0.008,0.007,0.042,0.006,0.004,0.016,0.003,0.007,0.004
693,0.0,0.007,0.005,-0.002,-0.015,0.007,0.005,0.008,-0.004,-0.001,0.006,-0.001,0.01,0.003,0.006,0.006,0.007,0.04,0.005,0.002,0.013,0.004,0.006,0.004
694,-0.003,0.003,0.001,-0.007,-0.019,0.005,0.002,0.005,-0.008,-0.005,0.002,-0.005,0.005,-0.001,0.004,0.003,0.005,0.038,0.002,-0.002,0.01,0.001,0.002,0.001
695,-0.003,0.0,-0.002,-0.009,-0.018,0.003,-0.001,0.004,-0.01,-0.006,0.0,-0.005,0.0,-0.001,0.001,0.002,0.003,0.036,0.0,-0.005,0.009,-0.002,-0.001,-0.001
696,0.0,0.0,0.0,-0.006,-0.016,0.004,0.001,0.004,-0.006,-0.005,0.0,-0.006,0.0,0.0,0.002,0.003,0.004,0.032,0.001,-0.004,0.014,-0.002,0.0,0.0
697,0.0,-0.002,-0.001,-0.006,-0.017,0.003,0.0,0.003,-0.004,-0.004,0.001,-0.007,0.001,0.001,0.003,0.004,0.003,0.028,0.002,-0.004,0.016,-0.002,0.003,0.001
698,0.003,-0.001,0.0,-0.003,-0.018,0.001,0.0,0.003,-0.001,-0.003,0.001,-0.007,0.001,0.0,0.004,0.003,0.004,0.031,0.002,-0.002,0.022,0.0,0.004,0.002
699,0.001,-0.005,-0.002,-0.004,-0.017,-0.002,-0.003,0.001,-0.002,-0.004,-0.002,-0.008,-0.001,-0.002,0.002,-0.001,0.001,0.034,-0.001,-0.003,0.024,-0.001,-0.001,-0.002
700,0.0,-0.004,-0.002,-0.005,-0.015,-0.001,-0.002,0.001,-0.003,-0.006,-0.003,-0.007,-0.001,-0.002,0.002,-0.002,0.001,0.036,-0.001,-0.003,0.024,-0.003,-0.002,-0.003
701,-0.001,-0.002,-0.001,-0.006,-0.017,0.001,-0.001,0.001,-0.005,-0.007,-0.003,-0.006,0.0,-0.001,0.002,0.001,0.002,0.037,-0.001,-0.005,0.025,-0.004,-0.002,-0.003
702,-0.003,-0.002,0.001,-0.008,-0.02,0.003,0.002,0.003,-0.008,-0.007,0.0,-0.005,0.003,0.001,0.002,0.002,0.004,0.036,0.0,-0.004,0.023,-0.004,-0.001,-0.002
703,-0.005,-0.005,-0.001,-0.01,-0.02,0.003,0.002,0.003,-0.008,-0.009,0.0,-0.008,0.002,0.001,0.001,0.001,0.003,0.031,0.0,-0.005,0.016,-0.006,-0.002,-0.001
704,-0.006,-0.008,-0.003,-0.01,-0.015,0.002,0.002,0.003,-0.009,-0.009,0.0,-0.009,0.001,0.001,0.001,0.0,0.002,0.022,0.0,-0.005,0.014,-0.004,-0.002,-0.002
705,-0.002,-0.007,-0.001,-0.003,-0.014,0.004,0.002,0.005,-0.002,-0.003,0.001,-0.006,0.003,0.002,0.002,0.003,0.004,0.022,0.002,-0.003,0.021,0.0,0.002,0.0
706,0.001,-0.004,0.003,0.001,-0.014,0.007,0.006,0.008,0.005,0.002,0.003,-0.002,0.008,0.005,0.006,0.008,0.007,0.019,0.006,0.001,0.031,0.003,0.005,0.002
707,0.003,0.0,0.008,0.001,-0.013,0.011,0.009,0.011,0.007,0.002,0.007,-0.002,0.01,0.007,0.009,0.012,0.011,0.023,0.008,0.004,0.034,0.005,0.006,0.005
708,0.006,0.005,0.011,0.0,-0.01,0.013,0.01,0.013,0.006,0.003,0.01,-0.002,0.011,0.008,0.01,0.013,0.012,0.029,0.008,0.005,0.028,0.004,0.005,0.005
709,0.007,0.007,0.009,0.001,-0.006,0.011,0.008,0.009,0.003,0.002,0.008,0.001,0.007,0.006,0.009,0.009,0.01,0.037,0.007,0.003,0.019,0.003,0.002,0.003
710,0.005,0.004,0.002,0.002,-0.006,0.004,0.003,0.004,0.001,-0.001,0.003,0.003,0.004,0.002,0.006,0.003,0.005,0.036,0.005,0.0,0.011,0.002,0.0,0.001
711,0.001,0.0,-0.002,-0.001,-0.004,0.0,-0.001,0.0,-0.002,-0.005,0.001,0.001,0.001,0.001,0.004,0.0,0.001,0.035,0.004,-0.002,0.009,0.001,0.0,0.001
712,0.0,-0.001,-0.003,-0.003,-0.005,0.0,-0.002,0.0,-0.002,-0.004,0.001,-0.001,0.001,-0.001,0.001,0.0,-0.001,0.028,0.003,-0.003,0.007,-0.001,-0.002,-0.002
713,0.002,0.001,-0.002,-0.004,-0.004,0.002,-0.001,0.001,-0.002,-0.003,0.0,-0.002,0.001,-0.001,0.0,0.002,0.001,0.026,0.004,-0.002,0.008,-0.001,-0.003,-0.004
714,0.0,-0.003,-0.002,-0.007,-0.008,0.001,-0.002,0.001,-0.004,-0.006,-0.002,-0.003,0.0,-0.003,-0.001,0.001,0.0,0.021,0.002,-0.004,0.012,-0.004,-0.003,-0.004
715,-0.003,-0.007,-0.002,-0.008,-0.007,0.0,-0.002,0.001,-0.008,-0.01,-0.002,-0.006,0.0,-0.003,-0.001,0.001,0.001,0.017,0.0,-0.005,0.017,-0.005,-0.002,-0.002
716,-0.004,-0.006,-0.001,-0.006,-0.004,0.001,0.0,0.002,-0.008,-0.011,-0.001,-0.006,0.002,-0.002,0.002,0.0,0.002,0.014,-0.001,-0.007,0.02,-0.005,-0.001,-0.001
717,0.001,-0.003,0.002,-0.002,-0.005,0.006,0.004,0.006,-0.005,-0.006,0.002,-0.004,0.005,0.001,0.004,0.003,0.005,0.009,0.002,-0.003,0.021,-0.002,0.001,0.0
718,0.004,0.0,0.004,0.001,-0.009,0.007,0.005,0.007,-0.001,-0.003,0.002,-0.001,0.005,0.0,0.003,0.004,0.005,0.004,0.004,-0.001,0.027,0.0,0.004,-0.003
719,0.004,-0.001,0.002,0.002,-0.009,0.005,0.003,0.004,-0.002,-0.002,0.001,0.001,0.002,-0.001,0.0,0.003,0.003,0.002,0.004,-0.001,0.025,-0.001,0.003,-0.005
720,0.003,-0.001,0.0,0.001,-0.007,0.0,0.0,0.001,-0.003,-0.003,-0.001,-0.002,-0.001,-0.005,-0.001,-0.001,-0.002,0.004,-0.001,-0.002,0.02,-0.002,-0.001,-0.007
721,0.0,0.001,0.001,-0.001,-0.007,0.001,-0.001,0.0,-0.006,-0.003,-0.001,-0.003,-0.002,-0.005,-0.002,-0.004,-0.002,0.004,-0.004,-0.003,0.013,-0.002,-0.003,-0.005
722,-0.002,0.002,0.001,-0.003,-0.005,0.002,-0.003,0.0,-0.009,-0.006,-0.003,-0.005,-0.001,-0.005,-0.003,-0.004,-0.001,0.006,-0.004,-0.003,0.006,-0.003,-0.003,-0.005
723,-0.003,0.002,0.001,-0.004,-0.007,0.0,-0.005,-0.001,-0.013,-0.009,-0.003,-0.006,-0.001,-0.005,-0.004,-0.005,-0.001,0.006,-0.003,-0.007,-0.001,-0.007,-0.001,-0.006
724,-0.004,-0.002,-0.001,-0.007,-0.005,-0.002,-0.006,-0.001,-0.014,-0.011,-0.004,-0.008,-0.004,-0.005,-0.004,-0.006,-0.003,0.004,-0.004,-0.008,-0.006,-0.009,-0.001,-0.006
725,-0.006,-0.003,-0.002,-0.01,-0.001,-0.001,-0.004,-0.001,-0.014,-0.01,-0.004,-0.006,-0.003,-0.004,-0.002,-0.003,-0.003,0.006,-0.006,-0.009,-0.002,-0.009,-0.002,-0.005
726,-0.006,-0.001,-0.002,-0.012,0.007,0.001,-0.003,-0.001,-0.012,-0.008,-0.002,-0.003,0.0,-0.002,-0.001,0.0,-0.001,0.008,-0.005,-0.007,0.001,-0.007,-0.002,-0.004
727,-0.006,-0.001,-0.005,-0.013,-0.002,0.0,-0.004,-0.002,-0.009,-0.008,-0.002,-0.006,0.0,-0.003,-0.001,-0.001,-0.001,0.012,-0.004,-0.004,0.006,-0.006,-0.002,-0.005
728,-0.007,-0.004,-0.007,-0.015,-0.008,-0.004,-0.006,-0.004,-0.012,-0.012,-0.005,-0.012,-0.004,-0.007,-0.004,-0.005,-0.003,0.011,-0.004,-0.006,0.008,-0.008,-0.005,-0.007
729,-0.011,-0.007,-0.008,-0.016,-0.006,-0.008,-0.008,-0.007,-0.017,-0.016,-0.008,-0.017,-0.008,-0.009,-0.005,-0.007,-0.006,0.011,-0.007,-0.01,0.011,-0.011,-0.009,-0.009
730,-0.011,-0.007,-0.006,-0.016,0.002,-0.009,-0.008,-0.007,-0.018,-0.016,-0.008,-0.015,-0.009,-0.01,-0.006,-0.007,-0.006,0.011,-0.007,-0.009,0.007,-0.007,-0.008,-0.009
731,-0.01,-0.009,-0.006,-0.014,0.001,-0.008,-0.008,-0.006,-0.013,-0.012,-0.006,-0.013,-0.008,-0.009,-0.005,-0.005,-0.004,0.011,-0.004,-0.006,-0.001,-0.003,-0.005,-0.01
732,-0.009,-0.012,-0.008,-0.014,-0.005,-0.008,-0.01,-0.008,-0.011,-0.009,-0.007,-0.013,-0.008,-0.01,-0.006,-0.007,-0.005,0.006,-0.003,-0.008,-0.009,-0.002,-0.005,-0.01
733,-0.008,-0.01,-0.008,-0.015,-0.002,-0.006,-0.01,-0.007,-0.011,-0.01,-0.009,-0.014,-0.008,-0.009,-0.006,-0.006,-0.006,0.008,-0.004,-0.008,0.0,-0.006,-0.008,-0.008
734,-0.005,-0.006,-0.005,-0.014,0.009,-0.004,-0.008,-0.005,-0.011,-0.011,-0.008,-0.014,-0.005,-0.008,-0.005,-0.005,-0.005,0.006,-0.004,-0.006,0.011,-0.009,-0.007,-0.008
735,-0.006,-0.005,-0.004,-0.013,0.015,-0.003,-0.007,-0.004,-0.01,-0.013,-0.008,-0.015,-0.003,-0.008,-0.005,-0.005,-0.006,-0.002,-0.004,-0.005,0.013,-0.011,-0.008,-0.009
736,-0.01,-0.009,-0.009,-0.014,0.016,-0.007,-0.009,-0.007,-0.011,-0.016,-0.009,-0.016,-0.006,-0.009,-0.008,-0.008,-0.008,-0.012,-0.007,-0.007,0.006,-0.012,-0.01,-0.011
737,-0.009,-0.007,-0.009,-0.014,0.017,-0.007,-0.007,-0.007,-0.01,-0.014,-0.009,-0.014,-0.007,-0.009,-0.008,-0.009,-0.008,-0.01,-0.007,-0.009,0.007,-0.011,-0.009,-0.014
738,-0.007,-0.006,-0.008,-0.014,0.01,-0.01,-0.007,-0.006,-0.01,-0.012,-0.01,-0.012,-0.009,-0.011,-0.009,-0.01,-0.008,-0.003,-0.009,-0.01,0.002,-0.009,-0.009,-0.014
739,-0.005,-0.003,-0.008,-0.012,0.005,-0.009,-0.008,-0.006,-0.009,-0.012,-0.01,-0.009,-0.009,-0.01,-0.009,-0.009,-0.007,0.006,-0.009,-0.009,-0.005,-0.008,-0.01,-0.012
740,-0.01,-0.006,-0.009,-0.014,0.002,-0.008,-0.009,-0.006,-0.011,-0.015,-0.011,-0.009,-0.009,-0.009,-0.009,-0.008,-0.008,0.007,-0.009,-0.011,-0.012,-0.01,-0.012,-0.01
741,-0.014,-0.014,-0.012,-0.019,0.002,-0.008,-0.012,-0.009,-0.016,-0.02,-0.014,-0.012,-0.01,-0.011,-0.009,-0.009,-0.01,0.005,-0.011,-0.014,-0.013,-0.018,-0.015,-0.013
742,-0.015,-0.015,-0.012,-0.02,-0.003,-0.01,-0.013,-0.01,-0.019,-0.02,-0.014,-0.015,-0.01,-0.013,-0.009,-0.011,-0.012,-0.002,-0.014,-0.017,-0.012,-0.019,-0.015,-0.014
743,-0.013,-0.014,-0.012,-0.015,-0.007,-0.009,-0.011,-0.009,-0.017,-0.016,-0.01,-0.017,-0.01,-0.012,-0.008,-0.009,-0.01,-0.009,-0.012,-0.016,-0.009,-0.015,-0.011,-0.012
744,-0.013,-0.016,-0.01,-0.012,-0.005,-0.008,-0.01,-0.008,-0.017,-0.016,-0.009,-0.018,-0.01,-0.011,-0.007,-0.007,-0.008,-0.017,-0.01,-0.014,0.001,-0.011,-0.007,-0.009
745,-0.013,-0.016,-0.01,-0.013,0.001,-0.01,-0.01,-0.01,-0.018,-0.018,-0.011,-0.019,-0.011,-0.011,-0.008,-0.009,-0.007,-0.016,-0.011,-0.012,0.014,-0.011,-0.008,-0.009
746,-0.014,-0.015,-0.013,-0.017,0.004,-0.016,-0.016,-0.014,-0.023,-0.022,-0.015,-0.021,-0.015,-0.012,-0.011,-0.013,-0.013,-0.011,-0.015,-0.014,0.012,-0.017,-0.013,-0.013
747,-0.017,-0.015,-0.014,-0.019,0.006,-0.019,-0.018,-0.016,-0.025,-0.023,-0.016,-0.02,-0.016,-0.014,-0.011,-0.015,-0.017,-0.005,-0.014,-0.014,-0.005,-0.016,-0.016,-0.015
748,-0.013,-0.012,-0.012,-0.015,0.005,-0.014,-0.014,-0.011,-0.019,-0.018,-0.014,-0.014,-0.013,-0.013,-0.007,-0.012,-0.013,-0.001,-0.008,-0.011,-0.011,-0.011,-0.014,-0.012
749,-0.005,-0.003,-0.005,-0.005,0.002,-0.005,-0.005,-0.004,-0.006,-0.005,-0.005,-0.004,-0.005,-0.005,-0.002,-0.005,-0.004,-0.001,-0.001,-0.004,-0.002,-0.002,-0.005,-0.003
750,0.0,0.0,0.0,0.0,0.0,0.0,0.0,0.0,0.0,0.0,0.0,0.0,0.0,0.0,0.0,0.0,0.0,0.0,0.0,0.0,0.0,0.0,0.0,0.0
