,0,1,2,3,4,5,6,7,8,9,10,11
220,0.264,0.267,0.136,0.133,0.359,0.344,0.181,0.169,0.127,0.063,0.064,0.059
221,0.264,0.268,0.138,0.135,0.316,0.303,0.162,0.15,0.148,0.076,0.074,0.07
222,0.276,0.28,0.145,0.14,0.281,0.269,0.145,0.134,0.169,0.087,0.086,0.082
223,0.293,0.298,0.156,0.149,0.256,0.244,0.131,0.123,0.191,0.098,0.097,0.094
224,0.316,0.32,0.167,0.159,0.223,0.211,0.113,0.107,0.214,0.11,0.109,0.105
225,0.343,0.348,0.18,0.173,0.186,0.176,0.095,0.089,0.243,0.123,0.122,0.118
226,0.373,0.379,0.194,0.187,0.15,0.142,0.076,0.07,0.273,0.139,0.135,0.132
227,0.41,0.416,0.212,0.204,0.113,0.107,0.058,0.052,0.31,0.156,0.153,0.15
228,0.45,0.456,0.231,0.222,0.082,0.078,0.043,0.038,0.349,0.174,0.171,0.167
229,0.488,0.494,0.25,0.241,0.059,0.056,0.032,0.027,0.389,0.193,0.189,0.185
230,0.526,0.534,0.272,0.261,0.043,0.04,0.025,0.02,0.431,0.213,0.21,0.205
231,0.564,0.572,0.291,0.279,0.034,0.031,0.021,0.017,0.473,0.235,0.231,0.225
232,0.603,0.611,0.312,0.299,0.029,0.026,0.018,0.015,0.515,0.258,0.254,0.247
233,0.644,0.652,0.333,0.32,0.025,0.021,0.015,0.013,0.56,0.281,0.276,0.27
234,0.682,0.69,0.354,0.34,0.022,0.019,0.014,0.011,0.606,0.304,0.299,0.293
235,0.721,0.731,0.376,0.361,0.02,0.017,0.012,0.01,0.654,0.329,0.324,0.316
236,0.758,0.768,0.396,0.38,0.019,0.016,0.011,0.009,0.699,0.354,0.347,0.339
237,0.792,0.801,0.417,0.4,0.018,0.016,0.011,0.007,0.741,0.377,0.369,0.362
238,0.825,0.833,0.436,0.42,0.018,0.016,0.012,0.008,0.78,0.399,0.39,0.383
239,0.86,0.866,0.455,0.439,0.018,0.016,0.011,0.008,0.818,0.419,0.411,0.403
240,0.893,0.901,0.474,0.457,0.018,0.016,0.011,0.009,0.858,0.439,0.431,0.422
241,0.927,0.938,0.49,0.472,0.018,0.016,0.011,0.009,0.899,0.458,0.449,0.44
242,0.957,0.968,0.502,0.483,0.019,0.017,0.012,0.009,0.937,0.474,0.464,0.455
243,0.972,0.983,0.509,0.489,0.02,0.019,0.014,0.01,0.958,0.483,0.473,0.464
244,0.974,0.984,0.512,0.492,0.021,0.019,0.014,0.01,0.962,0.487,0.476,0.468
245,0.974,0.982,0.513,0.494,0.022,0.02,0.014,0.011,0.957,0.485,0.474,0.467
246,0.986,0.995,0.517,0.498,0.021,0.019,0.014,0.011,0.955,0.483,0.471,0.463
247,1.004,1.013,0.522,0.504,0.021,0.019,0.014,0.011,0.956,0.478,0.467,0.459
248,1.007,1.019,0.523,0.505,0.021,0.02,0.016,0.012,0.944,0.469,0.458,0.45
249,0.988,0.998,0.516,0.498,0.022,0.021,0.017,0.013,0.915,0.455,0.444,0.437
250,0.946,0.956,0.498,0.48,0.023,0.022,0.017,0.014,0.87,0.434,0.425,0.417
251,0.898,0.909,0.474,0.456,0.022,0.02,0.015,0.013,0.82,0.409,0.4,0.393
252,0.851,0.86,0.447,0.429,0.021,0.02,0.014,0.012,0.766,0.38,0.371,0.364
253,0.8,0.807,0.417,0.4,0.022,0.02,0.015,0.012,0.702,0.346,0.338,0.331
254,0.746,0.752,0.389,0.373,0.023,0.021,0.015,0.012,0.63,0.309,0.301,0.295
255,0.695,0.703,0.364,0.35,0.023,0.022,0.016,0.013,0.55,0.269,0.262,0.256
256,0.657,0.665,0.344,0.332,0.022,0.022,0.015,0.013,0.471,0.229,0.222,0.216
257,0.63,0.638,0.329,0.317,0.021,0.021,0.015,0.013,0.398,0.191,0.185,0.18
258,0.6,0.607,0.312,0.301,0.021,0.021,0.015,0.013,0.329,0.157,0.151,0.147
259,0.558,0.563,0.288,0.278,0.021,0.02,0.015,0.012,0.269,0.127,0.122,0.119
260,0.5,0.504,0.256,0.247,0.021,0.02,0.015,0.011,0.219,0.104,0.099,0.097
261,0.427,0.431,0.219,0.211,0.021,0.021,0.015,0.012,0.181,0.086,0.082,0.08
262,0.347,0.351,0.18,0.173,0.02,0.02,0.014,0.012,0.153,0.073,0.07,0.068
263,0.271,0.274,0.143,0.138,0.019,0.019,0.013,0.012,0.131,0.062,0.059,0.058
264,0.204,0.207,0.111,0.106,0.019,0.018,0.013,0.011,0.113,0.056,0.053,0.052
265,0.154,0.158,0.085,0.081,0.018,0.018,0.012,0.01,0.099,0.05,0.047,0.047
266,0.119,0.124,0.066,0.064,0.018,0.017,0.012,0.01,0.091,0.046,0.045,0.043
267,0.096,0.101,0.053,0.052,0.017,0.017,0.012,0.01,0.087,0.043,0.042,0.041
268,0.082,0.086,0.046,0.044,0.017,0.015,0.013,0.009,0.086,0.043,0.042,0.04
269,0.072,0.077,0.042,0.041,0.017,0.015,0.013,0.01,0.086,0.044,0.044,0.041
270,0.065,0.07,0.039,0.038,0.015,0.015,0.012,0.009,0.086,0.045,0.044,0.042
271,0.063,0.068,0.038,0.036,0.014,0.013,0.01,0.008,0.086,0.045,0.044,0.042
272,0.062,0.067,0.037,0.035,0.013,0.011,0.009,0.006,0.086,0.045,0.044,0.042
273,0.063,0.068,0.038,0.036,0.011,0.01,0.009,0.006,0.088,0.046,0.045,0.043
274,0.063,0.067,0.038,0.036,0.011,0.01,0.009,0.006,0.089,0.047,0.046,0.044
275,0.06,0.065,0.036,0.035,0.01,0.01,0.009,0.006,0.091,0.047,0.047,0.044
276,0.055,0.061,0.034,0.032,0.01,0.009,0.008,0.006,0.093,0.047,0.047,0.045
277,0.052,0.058,0.033,0.03,0.009,0.009,0.008,0.005,0.096,0.049,0.048,0.046
278,0.052,0.057,0.032,0.03,0.009,0.008,0.007,0.005,0.099,0.051,0.05,0.047
279,0.055,0.06,0.033,0.031,0.01,0.008,0.008,0.005,0.101,0.053,0.051,0.048
280,0.058,0.063,0.035,0.033,0.008,0.008,0.007,0.005,0.102,0.052,0.051,0.049
281,0.061,0.066,0.037,0.034,0.007,0.006,0.007,0.004,0.101,0.052,0.051,0.049
282,0.062,0.067,0.038,0.035,0.007,0.007,0.007,0.004,0.1,0.052,0.052,0.048
283,0.058,0.064,0.036,0.034,0.008,0.007,0.007,0.003,0.098,0.052,0.052,0.048
284,0.051,0.056,0.032,0.03,0.008,0.007,0.007,0.003,0.095,0.05,0.05,0.046
285,0.041,0.047,0.027,0.025,0.007,0.007,0.006,0.003,0.092,0.048,0.048,0.045
286,0.035,0.04,0.023,0.021,0.007,0.006,0.006,0.002,0.089,0.046,0.046,0.043
287,0.031,0.035,0.02,0.019,0.007,0.007,0.007,0.004,0.087,0.045,0.044,0.042
288,0.031,0.036,0.02,0.02,0.008,0.008,0.008,0.004,0.086,0.044,0.044,0.041
289,0.036,0.041,0.023,0.022,0.008,0.007,0.007,0.004,0.083,0.043,0.042,0.039
290,0.042,0.048,0.027,0.026,0.008,0.007,0.006,0.003,0.079,0.041,0.041,0.038
291,0.044,0.05,0.029,0.027,0.007,0.006,0.006,0.002,0.075,0.04,0.04,0.037
292,0.036,0.041,0.024,0.023,0.006,0.005,0.005,0.002,0.068,0.036,0.036,0.034
293,0.023,0.028,0.017,0.015,0.004,0.004,0.004,0.001,0.058,0.03,0.031,0.028
294,0.013,0.018,0.012,0.009,0.003,0.003,0.003,-0.001,0.049,0.025,0.025,0.023
295,0.008,0.013,0.01,0.007,0.003,0.002,0.002,-0.001,0.04,0.021,0.022,0.019
296,0.008,0.013,0.01,0.008,0.004,0.003,0.003,-0.001,0.034,0.02,0.019,0.017
297,0.008,0.012,0.01,0.009,0.005,0.003,0.004,0,0.028,0.017,0.017,0.014
298,0.006,0.011,0.008,0.008,0.004,0.003,0.004,0,0.022,0.013,0.013,0.011
299,0.005,0.01,0.008,0.007,0.004,0.004,0.004,0.001,0.018,0.011,0.011,0.009
300,0.004,0.009,0.006,0.006,0.005,0.004,0.004,0.001,0.014,0.008,0.009,0.007
301,0.004,0.009,0.006,0.005,0.005,0.005,0.004,0.002,0.011,0.007,0.008,0.006
302,0.005,0.009,0.007,0.006,0.006,0.005,0.004,0.003,0.01,0.007,0.008,0.005
303,0.004,0.009,0.007,0.006,0.005,0.004,0.003,0.002,0.009,0.007,0.008,0.005
304,0.004,0.008,0.006,0.005,0.005,0.004,0.003,0.002,0.007,0.006,0.006,0.005
305,0.003,0.007,0.005,0.004,0.004,0.003,0.002,0.001,0.005,0.004,0.004,0.003
306,0.003,0.007,0.004,0.003,0.004,0.003,0.002,0,0.003,0.003,0.004,0.002
307,0.003,0.008,0.005,0.005,0.004,0.004,0.003,0.001,0.004,0.004,0.005,0.003
308,0.004,0.009,0.006,0.006,0.004,0.004,0.003,0.001,0.005,0.005,0.006,0.004
309,0.003,0.009,0.006,0.006,0.003,0.003,0.003,0,0.005,0.005,0.006,0.004
310,0.003,0.008,0.005,0.004,0.003,0.004,0.002,-0.001,0.004,0.004,0.004,0.002
311,0.002,0.006,0.004,0.003,0.003,0.003,0.002,-0.002,0.003,0.003,0.002,0.001
312,0.002,0.006,0.005,0.003,0.004,0.004,0.003,0,0.003,0.002,0.003,0.002
313,0.002,0.007,0.006,0.004,0.004,0.003,0.003,0,0.003,0.003,0.004,0.002
314,0.002,0.007,0.006,0.004,0.004,0.003,0.002,0,0.004,0.003,0.004,0.002
315,0.002,0.007,0.005,0.004,0.005,0.003,0.003,0,0.003,0.003,0.003,0.001
316,0.001,0.006,0.003,0.003,0.004,0.003,0.002,-0.001,0.003,0.002,0.002,0
317,0.002,0.006,0.004,0.004,0.005,0.004,0.003,0,0.003,0.003,0.003,0.001
318,0.003,0.007,0.005,0.005,0.005,0.005,0.003,0.001,0.004,0.003,0.003,0.002
319,0.003,0.008,0.005,0.005,0.004,0.004,0.002,0.001,0.004,0.003,0.004,0.003
320,0.001,0.007,0.004,0.004,0.003,0.003,0.002,0.001,0.003,0.003,0.004,0.002
321,0,0.005,0.003,0.002,0.003,0.002,0.001,0,0.002,0.002,0.003,0.001
322,0,0.005,0.003,0.002,0.002,0.002,0.001,-0.001,0.002,0.002,0.003,0
323,0.001,0.005,0.004,0.002,0.001,0.001,0,-0.002,0.002,0.002,0.002,0
324,0,0.004,0.002,0.002,0.001,0.001,0,-0.002,0.001,0.001,0.001,0
325,0,0.004,0.002,0.001,0.001,0.001,-0.001,-0.002,0.001,0.001,0.002,0
326,-0.001,0.005,0.002,0.002,0.002,0.001,-0.001,-0.001,0.001,0.001,0.002,-0.001
327,0,0.006,0.003,0.002,0.002,0.002,0,0,0.002,0.002,0.002,-0.001
328,0,0.006,0.003,0.002,0.002,0.002,0,0,0.001,0.001,0.002,-0.001
329,0,0.005,0.002,0.001,0.003,0.002,0,0,0,0,0,-0.001
330,-0.001,0.004,0,0,0.002,0.001,0,-0.001,-0.002,-0.001,-0.001,-0.001
331,-0.002,0.004,0,-0.001,0.002,0,0,-0.001,-0.001,-0.001,-0.001,-0.002
332,-0.002,0.004,0.001,0,0.002,0.002,0,-0.001,0,0,0,-0.001
333,-0.001,0.005,0.002,0.002,0.003,0.004,0.002,0.001,0.002,0.001,0.002,0
334,0,0.005,0.003,0.002,0.004,0.004,0.003,0.001,0.002,0.002,0.002,0
335,-0.001,0.003,0.002,0.001,0.003,0.002,0.001,0,0,0,0.001,-0.001
336,-0.001,0.003,0.001,0.001,0.002,0,0,0,-0.001,0,-0.001,-0.002
337,-0.002,0.003,0,0,0,-0.001,-0.002,-0.002,-0.002,-0.002,-0.002,-0.003
338,-0.002,0.003,0,0,0.001,0,-0.002,-0.002,-0.002,-0.003,-0.002,-0.004
339,-0.002,0.003,0.001,-0.001,0.001,0,-0.002,-0.002,-0.003,-0.002,-0.002,-0.004
340,-0.002,0.003,0,-0.001,0.002,0.001,-0.001,-0.001,-0.004,-0.002,-0.002,-0.004
341,-0.002,0.003,0,-0.001,0.001,0,-0.002,-0.002,-0.003,-0.002,-0.001,-0.003
342,-0.002,0.003,-0.001,-0.001,-0.001,-0.001,-0.002,-0.003,-0.002,-0.002,-0.001,-0.002
343,-0.002,0.003,0,0,-0.001,-0.002,-0.002,-0.003,-0.001,-0.001,-0.001,-0.002
344,-0.002,0.004,0.001,0.001,0.001,0,-0.001,-0.002,-0.001,-0.001,-0.001,-0.001
345,-0.001,0.003,0.001,0.001,0.003,0.002,0.001,0,-0.001,-0.001,-0.001,-0.001
346,-0.002,0.003,0.001,0,0.002,0.001,-0.001,-0.001,-0.001,-0.001,0,-0.002
347,-0.003,0.003,0,-0.001,0.001,0.001,-0.002,-0.002,-0.002,-0.003,-0.002,-0.003
348,-0.003,0.003,0.001,-0.001,0.001,0.001,-0.002,-0.002,-0.002,-0.003,-0.002,-0.003
349,-0.002,0.003,0,0,0.002,0.001,-0.002,-0.002,-0.002,-0.003,-0.002,-0.003
350,-0.001,0.004,0,0.001,0.003,0.001,-0.002,-0.001,-0.002,-0.002,-0.001,-0.002
351,0,0.005,0.001,0.002,0.003,0.001,-0.001,-0.001,-0.001,-0.001,0.001,-0.001
352,0,0.005,0.002,0.002,0.003,0.002,0,-0.001,0,0,0.002,-0.001
353,0,0.004,0.002,0.001,0.001,0.001,0,-0.001,-0.001,0,0.001,-0.002
354,-0.001,0.004,0.001,0.001,0,0,-0.001,-0.002,-0.002,-0.001,0,-0.002
355,-0.002,0.003,0.001,0,0,-0.002,-0.002,-0.004,-0.003,-0.002,-0.002,-0.003
356,-0.001,0.004,0.002,0.001,0,-0.002,-0.003,-0.005,-0.002,-0.001,-0.001,-0.002
357,0.001,0.006,0.004,0.002,0.002,0,-0.001,-0.002,-0.001,0.001,0.001,0
358,0.002,0.006,0.004,0.002,0.002,0.001,0,-0.001,0,0.001,0.002,0
359,0.001,0.006,0.004,0.003,0.003,0.002,0.001,0.001,0,0.001,0.003,0.001
360,0,0.004,0.002,0.001,0.002,0.001,0,-0.001,-0.001,0,0.001,-0.001
361,-0.001,0.004,0.002,0.001,0,-0.001,-0.002,-0.004,-0.002,0,0,-0.002
362,-0.001,0.004,0.001,0,-0.001,-0.002,-0.003,-0.005,-0.003,-0.001,0,-0.002
363,-0.002,0.003,0.001,-0.001,-0.001,-0.002,-0.003,-0.005,-0.003,-0.002,-0.001,-0.003
364,-0.002,0.003,0.001,-0.001,-0.001,-0.002,-0.002,-0.004,-0.003,-0.002,-0.001,-0.003
365,-0.002,0.002,0,-0.001,0.001,0,-0.001,-0.002,-0.002,-0.002,-0.002,-0.003
366,-0.001,0.004,0.001,0.001,0.003,0.003,0.001,0,-0.002,-0.001,-0.001,-0.002
367,0,0.005,0.002,0.003,0.005,0.005,0.003,0.002,-0.001,-0.001,-0.001,-0.001
368,0,0.006,0.003,0.004,0.005,0.005,0.004,0.002,-0.001,0,0,0
369,0.001,0.006,0.003,0.004,0.004,0.005,0.003,0.002,0,0,0,0
370,0.001,0.005,0.003,0.003,0.004,0.004,0.003,0.002,0.001,0.001,0.001,-0.001
371,0.001,0.006,0.003,0.003,0.003,0.003,0.003,0.002,0.001,0.001,0.002,0
372,0.001,0.006,0.003,0.003,0.004,0.004,0.004,0.002,0.001,0.001,0.002,0.001
373,0.001,0.006,0.003,0.004,0.005,0.005,0.005,0.002,0.001,0.001,0.002,0.001
374,0.001,0.006,0.003,0.003,0.005,0.005,0.004,0.002,0.001,0.001,0.002,0
375,0.001,0.006,0.003,0.002,0.004,0.005,0.003,0.001,0.001,0,0.001,-0.001
376,0.001,0.006,0.003,0.003,0.004,0.004,0.003,0.001,0,0,0.001,0
377,0.002,0.007,0.004,0.003,0.004,0.003,0.002,0,0,0.001,0.002,0.001
378,0.002,0.006,0.005,0.004,0.003,0.002,0.002,0,0,0.001,0.002,0.001
379,0.002,0.006,0.004,0.003,0.003,0.002,0.003,0.001,0,0.001,0.001,0.001
380,0.002,0.006,0.004,0.003,0.005,0.004,0.005,0.003,0,0.001,0,0
381,0.001,0.006,0.004,0.003,0.007,0.006,0.006,0.003,0,0.001,0,0
382,0.002,0.007,0.004,0.003,0.007,0.006,0.006,0.003,0.001,0.001,0.001,0
383,0.002,0.007,0.004,0.003,0.005,0.005,0.005,0.002,0.001,0.002,0.002,0.001
384,0.002,0.007,0.005,0.004,0.004,0.005,0.005,0.002,0.001,0.001,0.002,0.001
385,0.002,0.008,0.006,0.005,0.004,0.005,0.005,0.001,0.002,0.002,0.002,0.002
386,0.003,0.008,0.007,0.006,0.005,0.005,0.004,0.001,0.002,0.003,0.003,0.002
387,0.002,0.007,0.005,0.005,0.004,0.004,0.003,0.001,0.001,0.002,0.002,0.001
388,0.001,0.006,0.004,0.004,0.004,0.003,0.003,0.001,0.001,0.001,0.002,0.001
389,0,0.006,0.003,0.004,0.004,0.004,0.003,0.001,0.001,0.001,0.001,0.001
390,0.002,0.008,0.005,0.005,0.006,0.005,0.005,0.002,0.002,0.002,0.002,0.002
391,0.003,0.009,0.006,0.006,0.005,0.005,0.004,0.001,0.002,0.003,0.002,0.002
392,0.003,0.008,0.005,0.005,0.004,0.004,0.003,0.001,0.001,0.002,0.002,0.002
393,0.002,0.007,0.004,0.003,0.004,0.003,0.002,0,0,0.001,0.001,0
394,0.001,0.006,0.003,0.003,0.003,0.002,0,-0.001,0,0,0,-0.001
395,0.001,0.005,0.003,0.002,0.002,0.002,0,-0.001,-0.001,0,0,-0.001
396,0.002,0.006,0.004,0.004,0.003,0.003,0.002,0,0.001,0.001,0.001,0.001
397,0.003,0.008,0.006,0.005,0.005,0.005,0.005,0.003,0.002,0.002,0.003,0.002
398,0.005,0.01,0.007,0.006,0.006,0.007,0.006,0.004,0.004,0.004,0.004,0.003
399,0.003,0.009,0.006,0.006,0.006,0.007,0.005,0.003,0.003,0.002,0.002,0.001
400,0.003,0.008,0.005,0.005,0.005,0.006,0.004,0.001,0.002,0.002,0.001,0.001
401,0.002,0.007,0.004,0.004,0.005,0.005,0.003,0.001,0.001,0,0,0
402,0.001,0.005,0.003,0.003,0.004,0.003,0.003,0.001,0,0,-0.001,-0.001
403,0.001,0.004,0.002,0.002,0.003,0.002,0.002,0,0,0,0,-0.001
404,0.002,0.005,0.003,0.003,0.002,0.003,0.002,-0.001,0.001,0.001,0.001,0
405,0.004,0.007,0.005,0.005,0.004,0.004,0.003,0.001,0.002,0.003,0.003,0.002
406,0.003,0.008,0.006,0.005,0.005,0.006,0.005,0.003,0.002,0.002,0.003,0.001
407,0.003,0.007,0.005,0.005,0.007,0.006,0.005,0.004,0.002,0.002,0.003,0.001
408,0.003,0.006,0.005,0.005,0.007,0.006,0.005,0.004,0.002,0.001,0.002,0.001
409,0.004,0.008,0.005,0.006,0.006,0.006,0.005,0.004,0.004,0.002,0.003,0.003
410,0.003,0.008,0.005,0.005,0.006,0.006,0.006,0.003,0.002,0.001,0.003,0.002
411,0.002,0.008,0.005,0.004,0.006,0.006,0.006,0.003,0.002,0,0.002,0.002
412,0.002,0.008,0.005,0.004,0.005,0.006,0.005,0.004,0.001,0.001,0.002,0.002
413,0.002,0.007,0.005,0.005,0.005,0.005,0.003,0.003,0.001,0.002,0.002,0.002
414,0.003,0.008,0.006,0.006,0.005,0.005,0.003,0.002,0.003,0.003,0.003,0.003
415,0.003,0.008,0.006,0.006,0.007,0.006,0.005,0.003,0.003,0.005,0.004,0.003
416,0.004,0.009,0.006,0.006,0.006,0.005,0.005,0.003,0.003,0.005,0.005,0.003
417,0.004,0.009,0.006,0.006,0.006,0.005,0.004,0.003,0.003,0.004,0.004,0.002
418,0.003,0.008,0.005,0.005,0.005,0.005,0.004,0.002,0.002,0.002,0.002,0.001
419,0.002,0.007,0.004,0.004,0.005,0.005,0.004,0.002,0.002,0.001,0.002,0.001
420,0.003,0.007,0.005,0.004,0.006,0.005,0.005,0.003,0.002,0.002,0.002,0.001
421,0.003,0.008,0.006,0.004,0.004,0.004,0.003,0.002,0.002,0.002,0.002,0.001
422,0.003,0.007,0.005,0.004,0.004,0.004,0.003,0.002,0.002,0.002,0.001,0.001
423,0.003,0.007,0.005,0.003,0.004,0.004,0.003,0.002,0.001,0.002,0.001,0.001
424,0.001,0.007,0.003,0.003,0.003,0.004,0.003,0.001,0.001,0.001,0.001,0
425,0.001,0.005,0.003,0.003,0.003,0.004,0.003,0,0,0.001,0,-0.001
426,-0.001,0.004,0.002,0.002,0.003,0.003,0.002,-0.001,-0.001,-0.001,-0.001,-0.002
427,-0.002,0.003,0,0.001,0.003,0.003,0.001,-0.001,-0.003,-0.003,-0.003,-0.004
428,-0.001,0.004,0,0.001,0.004,0.004,0.002,0,-0.003,-0.003,-0.002,-0.003
429,-0.001,0.004,0,0.001,0.004,0.003,0.001,0,-0.002,-0.002,-0.001,-0.002
430,0.001,0.004,0.002,0.003,0.004,0.004,0.002,0.001,0.001,0,0.001,0
431,0.002,0.006,0.003,0.004,0.004,0.004,0.002,0.001,0.002,0.001,0.002,0.002
432,0.002,0.007,0.005,0.004,0.005,0.005,0.003,0.003,0.002,0.002,0.002,0.002
433,0.004,0.007,0.006,0.005,0.007,0.006,0.005,0.004,0.002,0.003,0.004,0.003
434,0.003,0.007,0.006,0.006,0.005,0.005,0.005,0.003,0.003,0.003,0.004,0.003
435,0.004,0.007,0.006,0.006,0.003,0.004,0.004,0.001,0.003,0.003,0.004,0.003
436,0.003,0.008,0.005,0.006,0.003,0.004,0.003,0,0.004,0.003,0.004,0.003
437,0.002,0.007,0.005,0.005,0.005,0.005,0.004,0.002,0.003,0.002,0.003,0.002
438,0.002,0.006,0.004,0.005,0.007,0.007,0.006,0.004,0.002,0.002,0.002,0.001
439,0.001,0.005,0.003,0.003,0.007,0.006,0.005,0.004,0,0,0,-0.001
440,0.001,0.004,0.002,0.002,0.006,0.005,0.003,0.002,-0.001,-0.001,-0.001,-0.001
441,-0.001,0.004,0.002,0.001,0.004,0.004,0.002,0,-0.001,-0.001,-0.001,-0.001
442,-0.001,0.004,0.001,0.001,0.003,0.002,0.001,0,-0.002,-0.001,-0.001,-0.002
443,0,0.005,0.002,0.002,0.003,0.003,0.002,0.001,-0.001,0,0,-0.001
444,0.001,0.005,0.003,0.003,0.003,0.004,0.001,0.001,0.001,0.001,0.002,0
445,0.002,0.006,0.005,0.005,0.005,0.006,0.004,0.003,0.002,0.003,0.003,0.002
446,0.002,0.006,0.005,0.004,0.005,0.006,0.005,0.004,0.003,0.003,0.003,0.002
447,0.001,0.005,0.002,0.002,0.005,0.005,0.005,0.005,0,0,0.001,-0.001
448,0,0.004,0.001,0.001,0.004,0.003,0.003,0.003,-0.002,-0.001,-0.001,-0.002
449,0,0.005,0.002,0.002,0.003,0.003,0.002,0.003,-0.001,-0.001,0,-0.001
450,0.002,0.007,0.004,0.004,0.003,0.004,0.002,0.003,0.002,0.001,0.001,0.001
451,0.004,0.009,0.006,0.006,0.003,0.004,0.002,0.002,0.003,0.002,0.002,0.002
452,0.003,0.009,0.006,0.005,0.002,0.003,0.002,0.002,0.002,0.001,0.002,0.001
453,0.002,0.008,0.004,0.005,0.003,0.004,0.002,0.002,0.001,0.001,0.001,0
454,0.001,0.006,0.003,0.003,0.005,0.003,0.002,0.003,0,-0.001,0,-0.001
455,0,0.005,0.002,0.003,0.005,0.003,0.001,0.002,0,-0.001,-0.001,-0.002
456,-0.001,0.004,0.001,0.001,0.004,0.002,0,0,-0.002,-0.002,-0.002,-0.003
457,-0.001,0.003,0.001,0.001,0.002,0.001,-0.001,-0.001,-0.002,-0.002,-0.001,-0.002
458,-0.001,0.004,0.001,0.001,0.002,0.001,0.001,0,-0.001,-0.001,-0.001,-0.001
459,-0.001,0.005,0.002,0.002,0.002,0.001,0.001,-0.001,-0.001,0,-0.001,-0.001
460,-0.001,0.005,0.001,0.002,0.002,0.003,0.001,0,-0.001,-0.001,-0.001,-0.002
461,-0.001,0.004,0,0,0.002,0.002,0.001,-0.001,-0.002,-0.003,-0.002,-0.003
462,-0.001,0.003,0.001,0.001,0.002,0.002,0,-0.001,-0.002,-0.002,-0.001,-0.003
463,0,0.004,0.002,0.002,0.003,0.003,0.001,0,-0.001,-0.002,-0.001,-0.002
464,0,0.004,0.002,0.002,0.005,0.005,0.002,0.001,0,-0.002,-0.002,-0.002
465,-0.001,0.004,0.002,0.002,0.006,0.005,0.002,0.001,-0.001,-0.002,-0.002,-0.003
466,-0.001,0.005,0.001,0.002,0.005,0.004,0.002,0.001,-0.002,-0.002,-0.002,-0.002
467,0,0.005,0.002,0.002,0.003,0.003,0.001,0.001,-0.001,-0.001,-0.001,-0.001
468,0,0.004,0.002,0.002,0.001,0.002,0,-0.001,-0.001,-0.001,0,-0.001
469,-0.001,0.004,0.002,0.001,0.001,0.002,0,-0.001,0,-0.001,-0.001,-0.001
470,-0.001,0.004,0.002,0.001,0.003,0.002,0.001,0,0,0,0,-0.001
471,0,0.004,0.003,0.002,0.004,0.004,0.003,0.002,0,0.001,0.001,0
472,0.002,0.007,0.005,0.004,0.006,0.006,0.004,0.003,0.002,0.003,0.002,0.002
473,0.003,0.008,0.006,0.006,0.007,0.007,0.004,0.003,0.002,0.003,0.003,0.003
474,0.002,0.007,0.005,0.004,0.005,0.005,0.002,0,0.001,0.002,0.001,0.001
475,0.001,0.006,0.003,0.002,0.004,0.004,0.001,-0.001,-0.001,0,-0.001,-0.001
476,-0.001,0.004,0.002,0,0.003,0.002,0,-0.002,-0.002,-0.001,-0.002,-0.002
477,-0.002,0.004,0.002,0.001,0.002,0.001,-0.001,-0.002,0,0,0,-0.001
478,-0.002,0.003,0.001,0.001,0.001,-0.001,-0.002,-0.002,0,0.001,0,0
479,-0.001,0.003,0,0.002,0.002,0,-0.002,-0.002,-0.001,0,-0.001,-0.001
480,-0.002,0.002,0,0.001,0.002,0.002,-0.001,-0.001,-0.003,-0.002,-0.003,-0.003
481,-0.002,0.002,-0.001,0,0.003,0.004,0,0,-0.004,-0.003,-0.004,-0.004
482,-0.002,0.002,-0.001,0,0.003,0.004,0.001,0.002,-0.003,-0.002,-0.002,-0.003
483,-0.001,0.002,0,0,0.002,0.003,0,0.001,-0.003,-0.002,-0.002,-0.003
484,-0.004,0,-0.003,-0.004,0,-0.001,-0.003,-0.002,-0.006,-0.005,-0.005,-0.006
485,-0.008,-0.003,-0.006,-0.007,-0.004,-0.005,-0.007,-0.006,-0.008,-0.008,-0.008,-0.009
486,-0.007,-0.003,-0.006,-0.006,-0.002,-0.003,-0.006,-0.004,-0.008,-0.007,-0.007,-0.008
487,-0.005,-0.001,-0.003,-0.003,0.002,0.002,-0.001,0,-0.006,-0.005,-0.005,-0.005
488,-0.005,0,-0.003,-0.003,0.003,0.003,0,0,-0.006,-0.005,-0.005,-0.005
489,-0.006,-0.003,-0.005,-0.005,0,-0.001,-0.004,-0.003,-0.008,-0.007,-0.006,-0.006
490,-0.006,-0.002,-0.005,-0.005,-0.002,-0.003,-0.007,-0.005,-0.007,-0.007,-0.006,-0.007
491,-0.006,0,-0.004,-0.004,-0.003,-0.003,-0.008,-0.006,-0.007,-0.007,-0.007,-0.007
492,-0.009,-0.003,-0.007,-0.007,-0.007,-0.007,-0.011,-0.009,-0.01,-0.01,-0.01,-0.011
493,-0.011,-0.006,-0.01,-0.009,-0.01,-0.01,-0.014,-0.01,-0.013,-0.012,-0.011,-0.012
494,-0.01,-0.006,-0.009,-0.009,-0.007,-0.008,-0.013,-0.008,-0.011,-0.01,-0.01,-0.011
495,-0.007,-0.003,-0.006,-0.005,-0.004,-0.004,-0.009,-0.006,-0.007,-0.006,-0.007,-0.007
496,-0.006,-0.001,-0.004,-0.004,-0.002,-0.002,-0.008,-0.005,-0.005,-0.005,-0.005,-0.005
497,-0.006,0,-0.003,-0.004,-0.003,-0.003,-0.008,-0.004,-0.005,-0.005,-0.005,-0.006
498,-0.005,0,-0.003,-0.003,-0.004,-0.004,-0.009,-0.005,-0.006,-0.005,-0.005,-0.006
499,-0.006,-0.001,-0.004,-0.004,-0.003,-0.004,-0.01,-0.005,-0.007,-0.007,-0.006,-0.007
500,-0.007,-0.003,-0.006,-0.006,-0.003,-0.005,-0.01,-0.005,-0.009,-0.009,-0.009,-0.01
501,-0.007,-0.003,-0.006,-0.007,-0.002,-0.004,-0.009,-0.003,-0.009,-0.009,-0.009,-0.009
502,-0.008,-0.003,-0.005,-0.006,-0.002,-0.004,-0.008,-0.002,-0.008,-0.008,-0.007,-0.008
503,-0.008,-0.004,-0.006,-0.006,-0.004,-0.004,-0.009,-0.003,-0.007,-0.007,-0.006,-0.007
504,-0.01,-0.006,-0.008,-0.008,-0.005,-0.005,-0.01,-0.005,-0.01,-0.009,-0.008,-0.01
505,-0.011,-0.007,-0.008,-0.01,-0.005,-0.006,-0.011,-0.006,-0.012,-0.011,-0.01,-0.012
506,-0.011,-0.006,-0.008,-0.01,-0.006,-0.008,-0.013,-0.008,-0.012,-0.011,-0.01,-0.012
507,-0.01,-0.006,-0.007,-0.008,-0.006,-0.01,-0.014,-0.009,-0.01,-0.009,-0.008,-0.01
508,-0.009,-0.005,-0.007,-0.008,-0.006,-0.01,-0.013,-0.009,-0.009,-0.008,-0.006,-0.008
509,-0.009,-0.006,-0.008,-0.009,-0.005,-0.008,-0.012,-0.008,-0.011,-0.01,-0.009,-0.01
510,-0.008,-0.006,-0.009,-0.01,-0.003,-0.006,-0.01,-0.006,-0.013,-0.012,-0.011,-0.012
511,-0.009,-0.006,-0.009,-0.009,-0.003,-0.006,-0.01,-0.007,-0.013,-0.013,-0.012,-0.012
512,-0.01,-0.006,-0.009,-0.009,-0.004,-0.005,-0.009,-0.007,-0.012,-0.01,-0.01,-0.011
513,-0.012,-0.008,-0.01,-0.01,-0.006,-0.007,-0.011,-0.008,-0.012,-0.011,-0.01,-0.012
514,-0.014,-0.01,-0.012,-0.012,-0.008,-0.009,-0.013,-0.01,-0.014,-0.014,-0.013,-0.015
515,-0.014,-0.011,-0.013,-0.013,-0.01,-0.011,-0.015,-0.012,-0.016,-0.016,-0.015,-0.016
516,-0.013,-0.01,-0.013,-0.013,-0.011,-0.012,-0.016,-0.013,-0.015,-0.015,-0.014,-0.014
517,-0.012,-0.009,-0.011,-0.011,-0.009,-0.01,-0.014,-0.011,-0.013,-0.012,-0.011,-0.012
518,-0.011,-0.007,-0.009,-0.009,-0.008,-0.009,-0.014,-0.011,-0.011,-0.01,-0.009,-0.01
519,-0.012,-0.007,-0.009,-0.009,-0.008,-0.01,-0.015,-0.011,-0.013,-0.011,-0.01,-0.012
520,-0.013,-0.008,-0.011,-0.011,-0.009,-0.011,-0.016,-0.012,-0.015,-0.013,-0.012,-0.014
521,-0.014,-0.009,-0.012,-0.012,-0.009,-0.011,-0.017,-0.012,-0.016,-0.014,-0.013,-0.015
522,-0.015,-0.009,-0.014,-0.014,-0.008,-0.01,-0.016,-0.012,-0.018,-0.016,-0.016,-0.016
523,-0.015,-0.01,-0.013,-0.014,-0.009,-0.011,-0.017,-0.013,-0.017,-0.017,-0.017,-0.017
524,-0.013,-0.008,-0.011,-0.013,-0.008,-0.011,-0.016,-0.013,-0.016,-0.015,-0.015,-0.015
525,-0.012,-0.006,-0.008,-0.011,-0.007,-0.008,-0.012,-0.01,-0.013,-0.012,-0.012,-0.013
526,-0.012,-0.007,-0.009,-0.01,-0.007,-0.008,-0.012,-0.01,-0.013,-0.012,-0.012,-0.012
527,-0.014,-0.009,-0.012,-0.013,-0.009,-0.011,-0.015,-0.011,-0.015,-0.014,-0.014,-0.014
528,-0.016,-0.012,-0.014,-0.015,-0.011,-0.013,-0.017,-0.015,-0.018,-0.017,-0.017,-0.017
529,-0.018,-0.015,-0.017,-0.018,-0.014,-0.016,-0.021,-0.018,-0.022,-0.02,-0.021,-0.021
530,-0.02,-0.017,-0.02,-0.02,-0.015,-0.017,-0.023,-0.019,-0.023,-0.022,-0.022,-0.022
531,-0.02,-0.017,-0.019,-0.02,-0.015,-0.017,-0.024,-0.018,-0.023,-0.022,-0.021,-0.022
532,-0.016,-0.013,-0.014,-0.016,-0.011,-0.013,-0.018,-0.014,-0.018,-0.017,-0.016,-0.018
533,-0.013,-0.01,-0.011,-0.013,-0.008,-0.011,-0.015,-0.011,-0.016,-0.015,-0.013,-0.015
534,-0.014,-0.01,-0.012,-0.013,-0.009,-0.012,-0.016,-0.012,-0.015,-0.014,-0.012,-0.014
535,-0.016,-0.011,-0.013,-0.014,-0.011,-0.014,-0.019,-0.014,-0.017,-0.016,-0.015,-0.017
536,-0.017,-0.012,-0.014,-0.015,-0.012,-0.014,-0.019,-0.016,-0.02,-0.018,-0.017,-0.019
537,-0.017,-0.013,-0.016,-0.017,-0.011,-0.014,-0.019,-0.016,-0.021,-0.02,-0.02,-0.021
538,-0.016,-0.013,-0.016,-0.018,-0.011,-0.015,-0.02,-0.016,-0.021,-0.02,-0.02,-0.02
539,-0.018,-0.014,-0.018,-0.018,-0.013,-0.016,-0.022,-0.015,-0.019,-0.019,-0.019,-0.018
540,-0.017,-0.012,-0.015,-0.015,-0.012,-0.014,-0.019,-0.014,-0.016,-0.015,-0.015,-0.015
541,-0.017,-0.012,-0.014,-0.014,-0.011,-0.011,-0.015,-0.012,-0.016,-0.014,-0.014,-0.015
542,-0.018,-0.013,-0.015,-0.016,-0.011,-0.012,-0.017,-0.015,-0.019,-0.017,-0.017,-0.019
543,-0.02,-0.015,-0.018,-0.019,-0.014,-0.017,-0.021,-0.019,-0.023,-0.021,-0.021,-0.022
544,-0.02,-0.016,-0.02,-0.021,-0.015,-0.019,-0.025,-0.02,-0.025,-0.023,-0.024,-0.024
545,-0.019,-0.016,-0.019,-0.021,-0.015,-0.019,-0.024,-0.019,-0.025,-0.024,-0.023,-0.024
546,-0.019,-0.016,-0.018,-0.021,-0.013,-0.016,-0.021,-0.017,-0.025,-0.024,-0.023,-0.024
547,-0.02,-0.016,-0.018,-0.02,-0.013,-0.015,-0.021,-0.018,-0.024,-0.023,-0.023,-0.024
548,-0.021,-0.018,-0.019,-0.021,-0.014,-0.017,-0.023,-0.019,-0.024,-0.023,-0.023,-0.024
549,-0.021,-0.018,-0.02,-0.021,-0.014,-0.018,-0.024,-0.019,-0.024,-0.023,-0.022,-0.024
550,-0.021,-0.018,-0.02,-0.022,-0.013,-0.017,-0.023,-0.019,-0.024,-0.023,-0.023,-0.024
551,-0.02,-0.016,-0.019,-0.02,-0.011,-0.015,-0.02,-0.016,-0.023,-0.022,-0.021,-0.022
552,-0.019,-0.014,-0.017,-0.019,-0.011,-0.014,-0.019,-0.015,-0.022,-0.021,-0.02,-0.021
553,-0.02,-0.015,-0.018,-0.02,-0.013,-0.015,-0.021,-0.016,-0.022,-0.02,-0.02,-0.021
554,-0.02,-0.016,-0.017,-0.019,-0.014,-0.016,-0.022,-0.017,-0.021,-0.019,-0.019,-0.02
555,-0.018,-0.015,-0.016,-0.017,-0.015,-0.016,-0.022,-0.019,-0.019,-0.017,-0.017,-0.018
556,-0.017,-0.013,-0.014,-0.015,-0.013,-0.015,-0.02,-0.017,-0.019,-0.017,-0.017,-0.017
557,-0.016,-0.012,-0.014,-0.015,-0.012,-0.014,-0.019,-0.016,-0.02,-0.017,-0.018,-0.017
558,-0.019,-0.013,-0.017,-0.018,-0.014,-0.017,-0.02,-0.016,-0.023,-0.019,-0.02,-0.02
559,-0.021,-0.015,-0.019,-0.02,-0.015,-0.018,-0.023,-0.016,-0.023,-0.02,-0.02,-0.021
560,-0.021,-0.015,-0.018,-0.019,-0.015,-0.017,-0.022,-0.016,-0.022,-0.019,-0.019,-0.02
561,-0.018,-0.015,-0.016,-0.017,-0.015,-0.017,-0.022,-0.017,-0.019,-0.018,-0.017,-0.019
562,-0.016,-0.013,-0.014,-0.015,-0.015,-0.017,-0.021,-0.019,-0.018,-0.017,-0.016,-0.017
563,-0.017,-0.013,-0.015,-0.016,-0.016,-0.017,-0.021,-0.019,-0.017,-0.017,-0.016,-0.017
564,-0.018,-0.014,-0.016,-0.017,-0.014,-0.017,-0.019,-0.017,-0.019,-0.017,-0.016,-0.017
565,-0.019,-0.015,-0.016,-0.018,-0.013,-0.017,-0.019,-0.016,-0.02,-0.018,-0.017,-0.018
566,-0.02,-0.016,-0.018,-0.019,-0.015,-0.019,-0.021,-0.018,-0.021,-0.019,-0.019,-0.02
567,-0.02,-0.016,-0.018,-0.019,-0.015,-0.019,-0.022,-0.02,-0.021,-0.02,-0.02,-0.02
568,-0.021,-0.017,-0.02,-0.021,-0.015,-0.017,-0.022,-0.019,-0.023,-0.023,-0.021,-0.023
569,-0.021,-0.017,-0.02,-0.021,-0.012,-0.014,-0.019,-0.016,-0.024,-0.022,-0.022,-0.024
570,-0.022,-0.016,-0.019,-0.019,-0.011,-0.012,-0.018,-0.016,-0.023,-0.022,-0.022,-0.023
571,-0.019,-0.012,-0.015,-0.015,-0.009,-0.011,-0.016,-0.014,-0.019,-0.019,-0.019,-0.019
572,-0.016,-0.011,-0.013,-0.013,-0.006,-0.009,-0.014,-0.012,-0.017,-0.017,-0.017,-0.017
573,-0.015,-0.012,-0.012,-0.014,-0.009,-0.01,-0.015,-0.014,-0.017,-0.017,-0.016,-0.017
574,-0.016,-0.012,-0.014,-0.016,-0.011,-0.013,-0.017,-0.016,-0.018,-0.017,-0.016,-0.017
575,-0.017,-0.013,-0.016,-0.017,-0.012,-0.013,-0.018,-0.016,-0.019,-0.018,-0.017,-0.018
576,-0.014,-0.011,-0.014,-0.015,-0.01,-0.013,-0.017,-0.013,-0.017,-0.016,-0.015,-0.016
577,-0.014,-0.011,-0.014,-0.015,-0.012,-0.014,-0.019,-0.013,-0.017,-0.015,-0.015,-0.017
578,-0.015,-0.012,-0.015,-0.015,-0.013,-0.016,-0.02,-0.015,-0.018,-0.017,-0.016,-0.018
579,-0.016,-0.014,-0.016,-0.016,-0.013,-0.015,-0.019,-0.015,-0.019,-0.017,-0.017,-0.018
580,-0.014,-0.011,-0.013,-0.014,-0.012,-0.013,-0.017,-0.014,-0.017,-0.015,-0.015,-0.016
581,-0.015,-0.01,-0.013,-0.014,-0.012,-0.013,-0.017,-0.014,-0.017,-0.014,-0.015,-0.015
582,-0.016,-0.011,-0.014,-0.015,-0.013,-0.013,-0.017,-0.014,-0.017,-0.014,-0.015,-0.016
583,-0.018,-0.012,-0.014,-0.016,-0.012,-0.013,-0.017,-0.014,-0.019,-0.016,-0.017,-0.017
584,-0.017,-0.011,-0.013,-0.014,-0.012,-0.014,-0.017,-0.015,-0.018,-0.016,-0.016,-0.017
585,-0.013,-0.007,-0.01,-0.01,-0.01,-0.012,-0.015,-0.013,-0.015,-0.015,-0.014,-0.014
586,-0.01,-0.006,-0.009,-0.008,-0.005,-0.006,-0.011,-0.009,-0.013,-0.013,-0.011,-0.013
587,-0.009,-0.004,-0.008,-0.008,-0.002,-0.002,-0.008,-0.006,-0.011,-0.011,-0.01,-0.011
588,-0.011,-0.006,-0.008,-0.01,-0.002,-0.003,-0.008,-0.008,-0.013,-0.011,-0.01,-0.012
589,-0.013,-0.008,-0.009,-0.012,-0.003,-0.005,-0.008,-0.009,-0.014,-0.012,-0.012,-0.013
590,-0.013,-0.009,-0.01,-0.011,-0.005,-0.005,-0.007,-0.009,-0.013,-0.012,-0.012,-0.013
591,-0.013,-0.009,-0.011,-0.011,-0.004,-0.004,-0.005,-0.006,-0.014,-0.012,-0.012,-0.013
592,-0.013,-0.008,-0.012,-0.011,-0.004,-0.004,-0.006,-0.006,-0.014,-0.013,-0.012,-0.013
593,-0.014,-0.009,-0.011,-0.012,-0.006,-0.006,-0.009,-0.008,-0.014,-0.015,-0.013,-0.014
594,-0.012,-0.008,-0.009,-0.01,-0.009,-0.009,-0.012,-0.011,-0.012,-0.014,-0.012,-0.014
595,-0.008,-0.004,-0.004,-0.006,-0.008,-0.009,-0.012,-0.011,-0.009,-0.01,-0.009,-0.012
596,-0.004,-0.001,-0.001,-0.002,-0.003,-0.004,-0.007,-0.007,-0.007,-0.007,-0.007,-0.009
597,-0.004,0,-0.001,-0.002,0,-0.002,-0.004,-0.005,-0.006,-0.007,-0.006,-0.008
598,-0.007,-0.003,-0.004,-0.004,-0.003,-0.005,-0.007,-0.009,-0.008,-0.009,-0.009,-0.009
599,-0.01,-0.005,-0.006,-0.005,-0.005,-0.006,-0.009,-0.011,-0.01,-0.011,-0.01,-0.009
600,-0.012,-0.007,-0.009,-0.008,-0.005,-0.005,-0.008,-0.011,-0.013,-0.013,-0.013,-0.012
601,-0.011,-0.005,-0.008,-0.009,-0.002,-0.001,-0.003,-0.008,-0.013,-0.013,-0.014,-0.014
602,-0.01,-0.003,-0.007,-0.008,-0.003,-0.002,-0.004,-0.008,-0.012,-0.013,-0.013,-0.014
603,-0.009,-0.003,-0.005,-0.006,-0.002,-0.002,-0.004,-0.005,-0.009,-0.01,-0.009,-0.012
604,-0.006,-0.002,-0.004,-0.003,0,-0.002,-0.003,-0.003,-0.006,-0.007,-0.006,-0.008
605,-0.003,0.001,-0.002,-0.001,0.001,0,-0.001,-0.002,-0.003,-0.004,-0.003,-0.005
606,-0.001,0.003,-0.001,0.001,0.004,0.003,0.001,-0.001,-0.003,-0.003,-0.002,-0.004
607,0.001,0.005,0.002,0.003,0.006,0.004,0.003,0,-0.002,-0.002,-0.002,-0.003
608,0.002,0.006,0.003,0.004,0.004,0.004,0.003,-0.001,-0.002,-0.002,-0.003,-0.002
609,0.001,0.006,0.004,0.003,0.002,0.003,0.001,-0.002,0,-0.001,-0.002,-0.001
610,0,0.006,0.003,0.003,0.003,0.003,-0.001,-0.003,-0.001,-0.001,-0.002,-0.002
611,-0.002,0.004,0.001,0,0.004,0.004,0,-0.003,-0.004,-0.003,-0.004,-0.005
612,0,0.005,0.001,0.001,0.005,0.004,0.002,-0.001,-0.003,-0.003,-0.004,-0.004
613,-0.001,0.002,-0.001,0,0.003,0.004,0.003,0,-0.004,-0.004,-0.004,-0.005
614,-0.002,0.003,0.001,0,0.003,0.005,0.004,0.001,-0.003,-0.003,-0.003,-0.004
615,0,0.006,0.004,0.001,0.006,0.007,0.008,0.003,-0.002,-0.001,0,-0.002
616,0.005,0.011,0.008,0.005,0.01,0.011,0.011,0.007,0.003,0.003,0.004,0.003
617,0.008,0.014,0.01,0.009,0.012,0.012,0.012,0.009,0.006,0.006,0.006,0.006
618,0.007,0.013,0.009,0.009,0.01,0.011,0.01,0.007,0.007,0.006,0.006,0.005
619,0.003,0.009,0.005,0.007,0.007,0.007,0.008,0.005,0.004,0.005,0.003,0.002
620,0.003,0.008,0.005,0.006,0.006,0.007,0.007,0.005,0.004,0.005,0.005,0.003
621,0.003,0.007,0.005,0.006,0.008,0.008,0.01,0.006,0.004,0.006,0.006,0.006
622,0.004,0.009,0.007,0.008,0.01,0.009,0.011,0.007,0.006,0.007,0.007,0.007
623,0.006,0.01,0.008,0.01,0.007,0.006,0.009,0.006,0.006,0.007,0.006,0.006
624,0.005,0.009,0.008,0.01,0.004,0.005,0.007,0.005,0.004,0.005,0.004,0.003
625,0.003,0.007,0.006,0.006,0.006,0.006,0.008,0.006,0,0,0,-0.001
626,0.003,0.006,0.004,0.004,0.009,0.009,0.011,0.007,-0.002,-0.001,-0.002,-0.003
627,0.005,0.009,0.005,0.004,0.012,0.01,0.012,0.009,0.001,0.002,0.002,0
628,0.005,0.009,0.006,0.004,0.01,0.009,0.011,0.009,0.003,0.004,0.004,0.003
629,0.003,0.008,0.006,0.005,0.007,0.007,0.01,0.006,0.004,0.005,0.004,0.004
630,0.001,0.005,0.003,0.003,0.005,0.005,0.008,0.004,0.001,0.002,0.002,0.002
631,0,0.005,0.002,0.002,0.004,0.004,0.006,0.003,0.001,0.002,0.003,0.001
632,0.003,0.006,0.005,0.004,0.006,0.007,0.007,0.007,0.004,0.003,0.005,0.004
633,0.004,0.009,0.008,0.008,0.007,0.009,0.009,0.006,0.006,0.007,0.007,0.005
634,0.007,0.012,0.01,0.01,0.01,0.01,0.012,0.008,0.008,0.008,0.009,0.007
635,0.007,0.014,0.01,0.011,0.011,0.01,0.011,0.006,0.008,0.009,0.01,0.007
636,0.01,0.017,0.013,0.013,0.012,0.011,0.012,0.006,0.011,0.011,0.012,0.01
637,0.01,0.016,0.013,0.013,0.011,0.013,0.012,0.006,0.01,0.01,0.011,0.01
638,0.009,0.015,0.013,0.014,0.008,0.011,0.011,0.005,0.011,0.01,0.01,0.009
639,0.007,0.013,0.009,0.011,0.007,0.009,0.011,0.006,0.009,0.009,0.008,0.008
640,0.005,0.012,0.008,0.009,0.005,0.008,0.009,0.005,0.007,0.007,0.007,0.006
641,0.003,0.01,0.007,0.008,0.007,0.009,0.009,0.006,0.005,0.004,0.005,0.004
642,0.004,0.011,0.009,0.01,0.005,0.009,0.007,0.004,0.006,0.005,0.004,0.003
643,0.006,0.013,0.011,0.011,0.006,0.008,0.007,0.003,0.008,0.007,0.006,0.005
644,0.008,0.014,0.011,0.011,0.007,0.008,0.007,0.004,0.01,0.009,0.009,0.007
645,0.007,0.013,0.01,0.01,0.011,0.01,0.009,0.008,0.01,0.01,0.009,0.008
646,0.005,0.009,0.006,0.007,0.011,0.011,0.011,0.009,0.006,0.007,0.007,0.006
647,0.003,0.006,0.004,0.004,0.009,0.01,0.01,0.008,0.002,0.003,0.002,0.002
648,0.005,0.009,0.006,0.005,0.009,0.011,0.01,0.009,0.004,0.004,0.003,0.003
649,0.008,0.013,0.009,0.009,0.012,0.014,0.013,0.011,0.007,0.007,0.006,0.006
650,0.009,0.015,0.012,0.012,0.014,0.016,0.015,0.012,0.009,0.009,0.009,0.009
651,0.009,0.015,0.013,0.014,0.015,0.016,0.015,0.012,0.01,0.01,0.01,0.011
652,0.008,0.013,0.013,0.013,0.012,0.013,0.012,0.01,0.011,0.011,0.01,0.011
653,0.009,0.014,0.014,0.014,0.011,0.012,0.011,0.011,0.012,0.013,0.013,0.013
654,0.011,0.015,0.015,0.015,0.012,0.013,0.012,0.01,0.012,0.013,0.013,0.011
655,0.012,0.016,0.014,0.015,0.014,0.014,0.016,0.011,0.011,0.012,0.011,0.01
656,0.01,0.014,0.012,0.012,0.013,0.013,0.016,0.01,0.008,0.008,0.008,0.006
657,0.006,0.01,0.008,0.008,0.009,0.009,0.012,0.006,0.006,0.006,0.005,0.004
658,0.006,0.011,0.008,0.009,0.007,0.008,0.01,0.004,0.006,0.007,0.007,0.005
659,0.008,0.012,0.009,0.011,0.009,0.008,0.01,0.006,0.008,0.008,0.01,0.008
660,0.01,0.014,0.012,0.013,0.012,0.011,0.013,0.009,0.009,0.009,0.011,0.01
661,0.006,0.011,0.009,0.009,0.011,0.011,0.012,0.007,0.006,0.006,0.008,0.008
662,0.004,0.009,0.006,0.006,0.009,0.011,0.011,0.006,0.004,0.003,0.005,0.004
663,0.005,0.01,0.007,0.007,0.007,0.008,0.008,0.005,0.004,0.004,0.006,0.004
664,0.008,0.013,0.012,0.012,0.006,0.008,0.01,0.008,0.009,0.009,0.011,0.008
665,0.009,0.016,0.014,0.014,0.007,0.009,0.011,0.009,0.012,0.012,0.014,0.012
666,0.009,0.016,0.013,0.013,0.006,0.008,0.011,0.007,0.013,0.014,0.015,0.012
667,0.005,0.013,0.009,0.009,0.004,0.004,0.008,0.004,0.009,0.008,0.009,0.008
668,0.005,0.012,0.008,0.007,0.004,0.004,0.008,0.004,0.005,0.005,0.005,0.004
669,0.004,0.01,0.007,0.006,0.008,0.008,0.01,0.007,0.003,0.002,0.002,0.001
670,0.001,0.007,0.004,0.003,0.009,0.01,0.011,0.009,0,0.001,0,-0.001
671,0,0.005,0.003,0.003,0.007,0.008,0.009,0.006,0,0,0,0
672,0.003,0.007,0.004,0.005,0.006,0.007,0.007,0.002,0,0,0,0.001
673,0.005,0.009,0.005,0.007,0.009,0.007,0.009,0.003,0.002,0.002,0.002,0.004
674,0.005,0.009,0.005,0.007,0.01,0.009,0.01,0.005,0.003,0.002,0.002,0.002
675,0.005,0.008,0.006,0.007,0.009,0.009,0.011,0.006,0.004,0.003,0.003,0.001
676,0.006,0.011,0.009,0.01,0.009,0.009,0.01,0.005,0.006,0.006,0.006,0.004
677,0.01,0.014,0.012,0.012,0.009,0.008,0.009,0.005,0.009,0.01,0.009,0.009
678,0.011,0.017,0.013,0.013,0.008,0.007,0.008,0.005,0.01,0.01,0.011,0.01
679,0.011,0.015,0.012,0.013,0.006,0.007,0.007,0.004,0.009,0.009,0.009,0.008
680,0.009,0.012,0.01,0.01,0.008,0.006,0.007,0.004,0.007,0.006,0.006,0.005
681,0.006,0.01,0.007,0.007,0.009,0.006,0.008,0.003,0.004,0.004,0.003,0.003
682,0.005,0.008,0.006,0.005,0.008,0.007,0.009,0.004,0.003,0.004,0.002,0.003
683,0.006,0.01,0.007,0.007,0.007,0.008,0.01,0.006,0.005,0.005,0.003,0.004
684,0.006,0.011,0.008,0.008,0.008,0.01,0.012,0.008,0.006,0.006,0.006,0.006
685,0.007,0.013,0.01,0.011,0.009,0.012,0.013,0.009,0.009,0.008,0.009,0.008
686,0.012,0.016,0.013,0.015,0.014,0.016,0.017,0.012,0.011,0.011,0.011,0.01
687,0.014,0.019,0.016,0.018,0.017,0.016,0.018,0.013,0.013,0.013,0.012,0.011
688,0.016,0.02,0.017,0.018,0.017,0.016,0.018,0.014,0.015,0.014,0.013,0.013
689,0.016,0.02,0.018,0.017,0.015,0.014,0.014,0.011,0.015,0.015,0.014,0.014
690,0.014,0.019,0.016,0.016,0.01,0.011,0.011,0.007,0.014,0.013,0.014,0.012
691,0.012,0.016,0.014,0.014,0.011,0.012,0.011,0.007,0.01,0.01,0.012,0.01
692,0.008,0.013,0.011,0.011,0.014,0.014,0.014,0.01,0.008,0.008,0.009,0.009
693,0.006,0.013,0.01,0.01,0.015,0.015,0.015,0.011,0.006,0.007,0.007,0.008
694,0.005,0.013,0.008,0.009,0.013,0.013,0.014,0.009,0.005,0.004,0.006,0.005
695,0.006,0.012,0.008,0.009,0.012,0.012,0.012,0.008,0.005,0.004,0.005,0.003
696,0.008,0.014,0.011,0.013,0.014,0.012,0.013,0.01,0.01,0.008,0.009,0.008
697,0.01,0.014,0.012,0.015,0.013,0.014,0.014,0.01,0.012,0.011,0.012,0.012
698,0.008,0.012,0.009,0.012,0.012,0.012,0.013,0.01,0.008,0.009,0.01,0.009
699,0.005,0.007,0.004,0.005,0.009,0.009,0.011,0.009,0.002,0.003,0.004,0.002
700,0.003,0.006,0.003,0.003,0.006,0.006,0.007,0.005,-0.001,0,0.001,-0.001
701,0.003,0.006,0.004,0.003,0.004,0.004,0.005,0.001,0,0,0,0
702,0.004,0.007,0.005,0.004,0.004,0.005,0.005,0.002,0.001,0.001,0.001,0.002
703,0.004,0.007,0.005,0.004,0.008,0.008,0.009,0.006,0.001,-0.001,0,-0.001
704,0.003,0.005,0.005,0.004,0.01,0.01,0.01,0.008,0,-0.002,-0.001,-0.002
705,0.004,0.006,0.006,0.006,0.009,0.009,0.008,0.007,0.001,0,0,-0.002
706,0.006,0.011,0.008,0.009,0.01,0.011,0.009,0.008,0.002,0.004,0.005,0.002
707,0.009,0.016,0.012,0.012,0.012,0.014,0.012,0.01,0.005,0.007,0.007,0.006
708,0.011,0.016,0.014,0.013,0.013,0.015,0.015,0.009,0.008,0.009,0.009,0.008
709,0.011,0.016,0.014,0.013,0.012,0.012,0.014,0.006,0.01,0.009,0.009,0.008
710,0.01,0.016,0.013,0.013,0.008,0.008,0.011,0.004,0.012,0.01,0.012,0.009
711,0.008,0.015,0.01,0.011,0.008,0.01,0.011,0.006,0.01,0.009,0.01,0.009
712,0.008,0.012,0.009,0.009,0.009,0.011,0.012,0.007,0.007,0.007,0.007,0.007
713,0.006,0.008,0.006,0.007,0.009,0.01,0.011,0.006,0.003,0.004,0.004,0.002
714,0.004,0.006,0.005,0.005,0.006,0.005,0.008,0.002,0.001,0.001,0.002,0
715,0.003,0.006,0.005,0.005,0.005,0.004,0.008,0.002,0.001,0,0.003,0.001
716,0.005,0.01,0.008,0.007,0.006,0.008,0.008,0.005,0.004,0.003,0.003,0.003
717,0.007,0.013,0.01,0.009,0.007,0.009,0.008,0.005,0.006,0.004,0.004,0.004
718,0.005,0.011,0.009,0.008,0.01,0.01,0.009,0.005,0.004,0.003,0.003,0.004
719,0.005,0.01,0.009,0.008,0.013,0.01,0.01,0.004,0.004,0.004,0.004,0.004
720,0.006,0.01,0.007,0.008,0.012,0.009,0.008,0.003,0.002,0.004,0.002,0.004
721,0.008,0.009,0.006,0.007,0.01,0.009,0.008,0.004,0.003,0.002,0.002,0.001
722,0.006,0.01,0.006,0.007,0.008,0.008,0.01,0.006,0.003,0.002,0.002,0
723,0.001,0.008,0.003,0.004,0.008,0.009,0.011,0.007,0.001,0,0.001,-0.001
724,-0.002,0.005,0.002,0.002,0.007,0.008,0.009,0.006,-0.002,-0.002,0,-0.002
725,-0.002,0.003,0.001,0.001,0.005,0.008,0.007,0.006,-0.002,-0.003,-0.001,-0.002
726,0.001,0.006,0.005,0.003,0.003,0.006,0.004,0.004,0.002,0.001,0,0
727,0.003,0.008,0.008,0.005,0.004,0.005,0.003,0.003,0.004,0.003,0.003,0.002
728,0.001,0.006,0.006,0.005,0.007,0.006,0.006,0.004,0,0.002,0.003,0
729,-0.003,0.001,0.001,0,0.008,0.006,0.007,0.004,-0.005,-0.004,-0.003,-0.005
730,-0.006,-0.001,-0.004,-0.005,0.005,0.005,0.005,-0.001,-0.009,-0.009,-0.008,-0.009
731,-0.004,0.001,-0.003,-0.004,0.005,0.005,0.006,-0.001,-0.007,-0.007,-0.007,-0.008
732,-0.004,0.003,-0.003,-0.003,0.008,0.007,0.009,0.003,-0.005,-0.004,-0.004,-0.007
733,-0.005,0.001,-0.004,-0.004,0.007,0.006,0.007,0.003,-0.006,-0.006,-0.006,-0.008
734,-0.008,-0.003,-0.007,-0.007,0.001,-0.001,0,-0.004,-0.01,-0.012,-0.012,-0.012
735,-0.005,-0.002,-0.003,-0.005,-0.002,-0.005,-0.006,-0.008,-0.009,-0.011,-0.011,-0.01
736,0.001,0.002,0.004,0.002,-0.001,-0.003,-0.006,-0.006,-0.003,-0.003,-0.004,-0.004
737,0.006,0.008,0.008,0.007,0.002,0,-0.003,-0.003,0.002,0.002,0.002,0.003
738,0.006,0.01,0.007,0.007,0.004,0.004,0.001,0,0.004,0.003,0.004,0.003
739,0.005,0.01,0.006,0.005,0.005,0.005,0.002,0.001,0.003,0.001,0.002,0.003
740,0.003,0.01,0.005,0.005,0.003,0.004,0.001,0,0.002,0.002,0.002,0.002
741,0.001,0.007,0.005,0.003,0.001,0,-0.001,-0.003,0.001,0.001,0.001,0
742,0.001,0.007,0.006,0.003,0.003,0.002,0.002,-0.001,0,0.001,0.002,0
743,0.003,0.006,0.004,0.003,0.004,0.004,0.003,-0.001,0.001,0.001,0.002,0.002
744,0.001,0.005,0.002,0.003,0.001,0.003,0.002,-0.003,0.001,0.001,0.001,0.001
745,-0.004,0.001,-0.003,0.001,-0.002,0,-0.001,-0.007,-0.004,-0.005,-0.005,-0.007
746,-0.005,0.001,-0.002,0,0,0,-0.001,-0.007,-0.006,-0.007,-0.008,-0.008
747,-0.001,0.006,0.002,0,0,0.001,0.001,-0.004,-0.002,-0.003,-0.005,-0.005
748,0.001,0.008,0.005,0,0,0.002,0.003,-0.001,0.003,0.001,-0.001,-0.002
749,-0.002,0.003,0.001,-0.001,-0.001,0,0.002,0,0.001,-0.001,0,-0.002
750,0,0,0,0,0,0,0,0,0,0,0,0
811,,,,,,,,,,,,
812,,,,,,,,,,,,
813,,,,,,,,,,,,
814,,,,,,,,,,,,
815,,,,,,,,,,,,
816,,,,,,,,,,,,
817,,,,,,,,,,,,
818,,,,,,,,,,,,
819,,,,,,,,,,,,
820,,,,,,,,,,,,
821,,,,,,,,,,,,
822,,,,,,,,,,,,
823,,,,,,,,,,,,
824,,,,,,,,,,,,
825,,,,,,,,,,,,
826,,,,,,,,,,,,
827,,,,,,,,,,,,
828,,,,,,,,,,,,
829,,,,,,,,,,,,
830,,,,,,,,,,,,
831,,,,,,,,,,,,
832,,,,,,,,,,,,
833,,,,,,,,,,,,
834,,,,,,,,,,,,
835,,,,,,,,,,,,
836,,,,,,,,,,,,
837,,,,,,,,,,,,
838,,,,,,,,,,,,
839,,,,,,,,,,,,
840,,,,,,,,,,,,
