,0,1,2,3,4,5,6,7
220,0.714,0.703,0.709,0.651,0.872,0.875,0.892,0.912
221,0.667,0.661,0.66,0.591,0.79,0.786,0.787,0.811
222,0.625,0.62,0.611,0.615,0.705,0.713,0.716,0.744
223,0.595,0.589,0.579,0.606,0.675,0.688,0.691,0.719
224,0.555,0.55,0.545,0.573,0.615,0.633,0.639,0.662
225,0.517,0.513,0.507,0.535,0.552,0.566,0.579,0.598
226,0.479,0.476,0.471,0.487,0.489,0.503,0.512,0.527
227,0.441,0.436,0.432,0.438,0.421,0.433,0.439,0.455
228,0.406,0.402,0.398,0.413,0.357,0.365,0.371,0.384
229,0.38,0.377,0.373,0.39,0.305,0.314,0.319,0.329
230,0.367,0.363,0.36,0.38,0.272,0.279,0.283,0.293
231,0.362,0.358,0.356,0.375,0.253,0.259,0.263,0.271
232,0.363,0.359,0.358,0.372,0.242,0.248,0.252,0.259
233,0.368,0.366,0.364,0.371,0.238,0.243,0.247,0.253
234,0.377,0.375,0.372,0.378,0.239,0.243,0.247,0.253
235,0.388,0.384,0.381,0.388,0.24,0.244,0.248,0.254
236,0.396,0.393,0.389,0.398,0.242,0.246,0.25,0.256
237,0.404,0.401,0.397,0.408,0.244,0.248,0.252,0.258
238,0.412,0.41,0.406,0.415,0.247,0.251,0.254,0.26
239,0.419,0.419,0.414,0.427,0.25,0.254,0.256,0.263
240,0.426,0.425,0.42,0.435,0.251,0.255,0.257,0.265
241,0.432,0.43,0.426,0.441,0.251,0.257,0.259,0.266
242,0.438,0.436,0.431,0.447,0.252,0.258,0.26,0.267
243,0.441,0.438,0.434,0.451,0.253,0.259,0.262,0.268
244,0.441,0.438,0.435,0.455,0.255,0.26,0.263,0.268
245,0.44,0.438,0.435,0.453,0.255,0.26,0.262,0.269
246,0.443,0.44,0.437,0.453,0.254,0.259,0.261,0.269
247,0.445,0.442,0.437,0.451,0.253,0.259,0.261,0.269
248,0.445,0.441,0.436,0.45,0.253,0.258,0.261,0.268
249,0.437,0.434,0.428,0.442,0.25,0.255,0.258,0.265
250,0.422,0.42,0.415,0.428,0.243,0.247,0.249,0.257
251,0.403,0.401,0.397,0.411,0.234,0.237,0.239,0.248
252,0.38,0.378,0.374,0.385,0.221,0.225,0.226,0.234
253,0.355,0.352,0.35,0.361,0.209,0.212,0.213,0.22
254,0.33,0.328,0.326,0.334,0.196,0.199,0.199,0.207
255,0.307,0.305,0.303,0.308,0.182,0.185,0.185,0.192
256,0.287,0.287,0.285,0.289,0.17,0.173,0.173,0.18
257,0.272,0.272,0.27,0.273,0.161,0.164,0.164,0.17
258,0.257,0.257,0.255,0.263,0.154,0.156,0.156,0.161
259,0.24,0.24,0.238,0.247,0.146,0.147,0.148,0.153
260,0.218,0.217,0.216,0.223,0.135,0.136,0.137,0.141
261,0.189,0.189,0.188,0.192,0.121,0.122,0.122,0.126
262,0.158,0.159,0.159,0.161,0.105,0.107,0.106,0.11
263,0.128,0.13,0.13,0.131,0.089,0.091,0.09,0.093
264,0.103,0.105,0.105,0.108,0.075,0.077,0.076,0.079
265,0.085,0.086,0.087,0.092,0.067,0.067,0.066,0.069
266,0.071,0.074,0.074,0.08,0.059,0.059,0.058,0.06
267,0.062,0.065,0.066,0.07,0.054,0.054,0.052,0.055
268,0.056,0.059,0.06,0.062,0.051,0.05,0.048,0.05
269,0.052,0.054,0.055,0.057,0.047,0.047,0.045,0.047
270,0.049,0.051,0.052,0.054,0.045,0.045,0.043,0.044
271,0.048,0.05,0.05,0.053,0.043,0.043,0.041,0.041
272,0.047,0.049,0.049,0.053,0.041,0.04,0.039,0.039
273,0.045,0.047,0.047,0.051,0.038,0.037,0.035,0.035
274,0.042,0.045,0.045,0.048,0.035,0.035,0.032,0.033
275,0.039,0.041,0.043,0.043,0.032,0.033,0.03,0.031
276,0.037,0.039,0.04,0.04,0.03,0.031,0.028,0.029
277,0.035,0.038,0.038,0.037,0.029,0.029,0.027,0.027
278,0.035,0.037,0.038,0.038,0.029,0.029,0.027,0.027
279,0.036,0.038,0.039,0.041,0.03,0.029,0.028,0.027
280,0.038,0.039,0.04,0.045,0.031,0.03,0.029,0.028
281,0.038,0.04,0.04,0.047,0.03,0.029,0.028,0.028
282,0.038,0.04,0.04,0.044,0.03,0.029,0.027,0.028
283,0.036,0.039,0.039,0.04,0.029,0.028,0.027,0.027
284,0.033,0.035,0.036,0.036,0.028,0.026,0.025,0.024
285,0.029,0.031,0.031,0.032,0.025,0.024,0.022,0.021
286,0.025,0.027,0.027,0.028,0.022,0.021,0.019,0.018
287,0.022,0.025,0.025,0.025,0.02,0.019,0.017,0.017
288,0.022,0.025,0.026,0.024,0.021,0.02,0.017,0.017
289,0.024,0.027,0.028,0.026,0.021,0.021,0.019,0.019
290,0.025,0.027,0.028,0.027,0.021,0.021,0.019,0.018
291,0.024,0.026,0.027,0.028,0.02,0.02,0.017,0.018
292,0.02,0.023,0.023,0.026,0.018,0.018,0.015,0.015
293,0.015,0.017,0.017,0.022,0.015,0.015,0.011,0.011
294,0.011,0.013,0.013,0.017,0.012,0.013,0.009,0.008
295,0.008,0.01,0.011,0.013,0.011,0.01,0.008,0.007
296,0.008,0.01,0.011,0.01,0.011,0.01,0.008,0.008
297,0.008,0.01,0.01,0.012,0.011,0.009,0.008,0.007
298,0.007,0.009,0.01,0.011,0.01,0.008,0.007,0.006
299,0.008,0.01,0.01,0.012,0.01,0.009,0.007,0.006
300,0.008,0.011,0.011,0.013,0.012,0.011,0.008,0.008
301,0.009,0.011,0.012,0.012,0.012,0.011,0.009,0.008
302,0.008,0.01,0.011,0.011,0.011,0.01,0.007,0.008
303,0.007,0.008,0.01,0.009,0.009,0.009,0.005,0.007
304,0.005,0.007,0.009,0.007,0.009,0.007,0.004,0.005
305,0.005,0.007,0.009,0.005,0.01,0.008,0.005,0.005
306,0.005,0.008,0.01,0.005,0.011,0.009,0.006,0.006
307,0.006,0.009,0.011,0.006,0.011,0.01,0.008,0.007
308,0.007,0.011,0.012,0.008,0.011,0.01,0.009,0.008
309,0.007,0.01,0.011,0.008,0.011,0.01,0.008,0.007
310,0.008,0.011,0.011,0.01,0.011,0.01,0.008,0.007
311,0.008,0.01,0.01,0.009,0.01,0.01,0.007,0.007
312,0.008,0.009,0.01,0.008,0.01,0.01,0.007,0.007
313,0.008,0.01,0.01,0.008,0.011,0.01,0.007,0.007
314,0.008,0.01,0.011,0.008,0.011,0.01,0.007,0.007
315,0.009,0.011,0.011,0.008,0.012,0.011,0.008,0.008
316,0.008,0.01,0.011,0.007,0.011,0.011,0.008,0.007
317,0.007,0.009,0.011,0.008,0.011,0.01,0.008,0.007
318,0.006,0.008,0.009,0.008,0.009,0.009,0.006,0.006
319,0.006,0.007,0.008,0.01,0.008,0.007,0.005,0.004
320,0.006,0.007,0.008,0.012,0.008,0.007,0.005,0.005
321,0.007,0.009,0.009,0.011,0.009,0.008,0.005,0.006
322,0.007,0.009,0.01,0.01,0.009,0.008,0.006,0.005
323,0.006,0.008,0.01,0.009,0.009,0.008,0.005,0.005
324,0.006,0.008,0.01,0.009,0.009,0.007,0.005,0.004
325,0.005,0.007,0.008,0.009,0.008,0.007,0.004,0.005
326,0.005,0.007,0.008,0.006,0.007,0.007,0.003,0.004
327,0.006,0.007,0.009,0.005,0.008,0.008,0.005,0.005
328,0.006,0.007,0.009,0.006,0.01,0.009,0.005,0.006
329,0.005,0.007,0.009,0.008,0.009,0.007,0.004,0.005
330,0.004,0.007,0.007,0.008,0.007,0.005,0.003,0.004
331,0.003,0.007,0.007,0.007,0.006,0.005,0.004,0.003
332,0.005,0.007,0.008,0.007,0.007,0.006,0.004,0.004
333,0.005,0.007,0.009,0.007,0.008,0.007,0.004,0.004
334,0.005,0.008,0.009,0.008,0.008,0.008,0.005,0.005
335,0.005,0.007,0.009,0.009,0.007,0.008,0.004,0.005
336,0.005,0.006,0.009,0.006,0.007,0.007,0.003,0.003
337,0.004,0.006,0.009,0.005,0.007,0.006,0.003,0.003
338,0.004,0.007,0.008,0.002,0.007,0.006,0.003,0.003
339,0.004,0.007,0.007,0.002,0.007,0.006,0.003,0.003
340,0.004,0.006,0.007,0.002,0.006,0.006,0.002,0.003
341,0.003,0.004,0.006,0.002,0.005,0.005,0,0.001
342,0.003,0.004,0.006,0.005,0.006,0.005,0.001,0.001
343,0.003,0.005,0.006,0.005,0.006,0.005,0.002,0.001
344,0.004,0.006,0.007,0.007,0.007,0.007,0.003,0.003
345,0.006,0.007,0.008,0.005,0.008,0.007,0.004,0.004
346,0.006,0.007,0.007,0.004,0.008,0.006,0.004,0.004
347,0.005,0.007,0.007,0.004,0.008,0.005,0.003,0.003
348,0.004,0.006,0.006,0.004,0.008,0.005,0.002,0.002
349,0.003,0.006,0.007,0.005,0.008,0.005,0.003,0.003
350,0.004,0.006,0.007,0.003,0.007,0.005,0.004,0.003
351,0.005,0.007,0.007,0.003,0.006,0.006,0.004,0.003
352,0.005,0.007,0.007,0.002,0.006,0.005,0.003,0.003
353,0.006,0.008,0.008,0.002,0.006,0.006,0.004,0.003
354,0.005,0.008,0.008,0.003,0.007,0.007,0.004,0.003
355,0.004,0.006,0.007,0.003,0.006,0.006,0.003,0.002
356,0.004,0.006,0.007,0.004,0.006,0.006,0.003,0.003
357,0.005,0.005,0.007,0.005,0.006,0.006,0.003,0.003
358,0.005,0.006,0.007,0.006,0.007,0.005,0.003,0.004
359,0.005,0.007,0.007,0.005,0.007,0.005,0.003,0.004
360,0.004,0.007,0.007,0.003,0.008,0.005,0.004,0.003
361,0.005,0.007,0.006,0.003,0.008,0.006,0.004,0.004
362,0.004,0.006,0.006,0.003,0.008,0.006,0.004,0.004
363,0.003,0.005,0.006,0.004,0.006,0.005,0.003,0.003
364,0.003,0.004,0.005,0.004,0.004,0.004,0.002,0.001
365,0.003,0.004,0.006,0.004,0.005,0.004,0.002,0.001
366,0.004,0.005,0.006,0.005,0.006,0.005,0.001,0.001
367,0.005,0.006,0.007,0.005,0.007,0.007,0.002,0.003
368,0.005,0.006,0.007,0.002,0.007,0.007,0.002,0.003
369,0.004,0.006,0.008,0,0.006,0.006,0.003,0.003
370,0.004,0.006,0.007,0.003,0.006,0.006,0.003,0.003
371,0.004,0.005,0.007,0.007,0.006,0.006,0.003,0.002
372,0.004,0.007,0.008,0.01,0.007,0.007,0.004,0.004
373,0.007,0.008,0.01,0.01,0.01,0.009,0.005,0.006
374,0.008,0.009,0.011,0.008,0.01,0.01,0.006,0.007
375,0.007,0.008,0.01,0.005,0.009,0.009,0.005,0.005
376,0.004,0.005,0.007,0.005,0.007,0.006,0.003,0.003
377,0.003,0.006,0.005,0.005,0.006,0.006,0.003,0.002
378,0.007,0.008,0.008,0.008,0.009,0.008,0.005,0.005
379,0.007,0.009,0.009,0.006,0.01,0.008,0.006,0.005
380,0.006,0.008,0.009,0.005,0.009,0.008,0.006,0.005
381,0.005,0.007,0.009,0.007,0.009,0.007,0.005,0.005
382,0.005,0.008,0.008,0.008,0.008,0.007,0.004,0.005
383,0.006,0.008,0.009,0.008,0.01,0.008,0.005,0.005
384,0.005,0.007,0.006,0.003,0.008,0.006,0.003,0.003
385,0.005,0.007,0.007,0.001,0.007,0.006,0.002,0.003
386,0.005,0.007,0.008,-0.001,0.007,0.007,0.003,0.004
387,0.003,0.006,0.007,-0.001,0.006,0.005,0.001,0.003
388,0.002,0.005,0.005,0,0.006,0.005,0.001,0.002
389,0.001,0.004,0.003,0,0.004,0.003,0,0
390,0.001,0.003,0.004,0.001,0.004,0.003,0,0
391,0.003,0.005,0.006,0.003,0.005,0.004,0.001,0.001
392,0.004,0.006,0.007,0.001,0.006,0.004,0.002,0.002
393,0.005,0.006,0.007,-0.001,0.007,0.005,0.003,0.003
394,0.004,0.005,0.006,-0.003,0.006,0.005,0.002,0.002
395,0.004,0.005,0.006,-0.002,0.006,0.005,0.003,0.002
396,0.005,0.007,0.007,0.002,0.007,0.006,0.003,0.003
397,0.005,0.007,0.007,0,0.007,0.007,0.003,0.003
398,0.005,0.007,0.006,-0.001,0.007,0.007,0.002,0.004
399,0.005,0.007,0.006,0.002,0.007,0.006,0.002,0.003
400,0.006,0.008,0.007,0.007,0.009,0.007,0.004,0.004
401,0.006,0.008,0.007,0.008,0.009,0.007,0.005,0.005
402,0.005,0.007,0.007,0.006,0.008,0.007,0.004,0.004
403,0.006,0.008,0.008,0.007,0.008,0.007,0.004,0.004
404,0.008,0.008,0.009,0.009,0.009,0.008,0.005,0.005
405,0.008,0.009,0.01,0.008,0.01,0.008,0.006,0.006
406,0.007,0.008,0.008,0.006,0.008,0.008,0.004,0.004
407,0.004,0.005,0.006,0.003,0.006,0.006,0.002,0.002
408,0.005,0.006,0.006,0.004,0.006,0.005,0.002,0.002
409,0.004,0.005,0.005,0.005,0.005,0.004,0.001,0.002
410,0.005,0.007,0.007,0.007,0.007,0.005,0.003,0.003
411,0.005,0.008,0.008,0.009,0.008,0.007,0.004,0.004
412,0.006,0.008,0.008,0.007,0.009,0.007,0.004,0.005
413,0.006,0.008,0.009,0.005,0.009,0.008,0.005,0.005
414,0.005,0.006,0.006,0.002,0.007,0.006,0.003,0.004
415,0.003,0.005,0.005,-0.001,0.006,0.005,0.002,0.003
416,0.004,0.005,0.005,-0.001,0.006,0.006,0.002,0.002
417,0.006,0.006,0.007,0.002,0.007,0.006,0.003,0.003
418,0.007,0.008,0.008,0.003,0.008,0.007,0.004,0.004
419,0.007,0.009,0.009,0.004,0.009,0.008,0.005,0.005
420,0.006,0.008,0.007,0.002,0.008,0.007,0.004,0.004
421,0.007,0.009,0.009,0.004,0.009,0.008,0.005,0.005
422,0.007,0.008,0.009,0.005,0.007,0.007,0.004,0.004
423,0.006,0.008,0.008,0.005,0.006,0.006,0.003,0.004
424,0.006,0.007,0.007,0.006,0.007,0.006,0.003,0.004
425,0.004,0.006,0.006,0.002,0.006,0.005,0.001,0.003
426,0.004,0.006,0.006,0.002,0.007,0.005,0.002,0.003
427,0.004,0.006,0.007,0.001,0.007,0.005,0.002,0.003
428,0.004,0.006,0.006,0.003,0.006,0.005,0.002,0.002
429,0.001,0.003,0.003,0.002,0.003,0.003,-0.001,-0.001
430,-0.001,0,0,-0.002,0,0,-0.003,-0.004
431,-0.003,-0.001,0,-0.003,-0.001,-0.001,-0.003,-0.005
432,-0.001,0.001,0.002,-0.002,0.001,0.001,-0.002,-0.002
433,0.003,0.005,0.005,0.003,0.004,0.004,0,0.001
434,0.007,0.009,0.008,0.006,0.008,0.007,0.003,0.005
435,0.009,0.01,0.009,0.008,0.009,0.009,0.005,0.006
436,0.006,0.008,0.007,0.005,0.007,0.007,0.003,0.004
437,0.003,0.005,0.006,0.002,0.005,0.005,0.001,0.002
438,0,0.002,0.003,-0.003,0.002,0,-0.002,-0.001
439,0,0.001,0.002,-0.004,0.002,0,-0.003,-0.002
440,0.002,0.002,0.004,-0.004,0.003,0.002,-0.001,-0.001
441,0.005,0.005,0.006,0,0.005,0.005,0.001,0.001
442,0.007,0.008,0.009,0.004,0.008,0.007,0.004,0.003
443,0.008,0.009,0.009,0.007,0.009,0.007,0.004,0.005
444,0.005,0.007,0.007,0.003,0.006,0.006,0.002,0.004
445,0.002,0.003,0.003,-0.001,0.003,0.003,-0.001,0
446,-0.001,0.001,0,-0.006,-0.001,-0.001,-0.004,-0.003
447,-0.001,0.001,0,-0.004,-0.001,-0.001,-0.004,-0.003
448,0.001,0.003,0.002,0,0.002,0.002,-0.001,-0.001
449,0.002,0.004,0.004,0.003,0.005,0.004,0,0.001
450,0.005,0.006,0.007,0.004,0.007,0.007,0.003,0.003
451,0.007,0.009,0.009,0.004,0.009,0.008,0.005,0.006
452,0.007,0.009,0.01,0.004,0.009,0.009,0.006,0.006
453,0.005,0.006,0.008,0.002,0.006,0.006,0.003,0.004
454,0.002,0.003,0.005,0,0.003,0.003,-0.001,0
455,0.001,0.002,0.003,-0.005,0.002,0.001,-0.002,-0.002
456,0,0.002,0.003,-0.006,0.002,0.001,-0.002,-0.002
457,0.002,0.005,0.005,-0.002,0.005,0.004,0,0
458,0.003,0.006,0.006,0.002,0.005,0.006,0.002,0.002
459,0.004,0.006,0.006,0.003,0.006,0.006,0.002,0.002
460,0.005,0.008,0.008,0.001,0.006,0.006,0.003,0.003
461,0.007,0.009,0.008,0,0.007,0.008,0.004,0.005
462,0.006,0.009,0.008,0.001,0.008,0.009,0.003,0.004
463,0.003,0.005,0.005,0.002,0.005,0.006,0.001,0.001
464,0.001,0.002,0.002,0.003,0.002,0.003,-0.002,-0.002
465,0.001,0.002,0.002,0.003,0.002,0.002,-0.002,-0.002
466,0.002,0.003,0.003,0.002,0.004,0.003,-0.001,-0.001
467,0.004,0.006,0.006,0.002,0.006,0.005,0.001,0.002
468,0.005,0.006,0.006,0.002,0.006,0.005,0.001,0.002
469,0.005,0.006,0.006,0.001,0.006,0.005,0.001,0.002
470,0.006,0.007,0.008,-0.001,0.007,0.006,0.003,0.004
471,0.008,0.009,0.01,0.003,0.009,0.008,0.005,0.005
472,0.008,0.01,0.01,0.005,0.009,0.009,0.005,0.006
473,0.006,0.008,0.008,0.003,0.008,0.007,0.003,0.004
474,0.005,0.007,0.008,0.001,0.008,0.007,0.003,0.004
475,0.005,0.007,0.007,-0.002,0.008,0.007,0.003,0.005
476,0.005,0.007,0.006,-0.001,0.007,0.007,0.003,0.005
477,0.004,0.006,0.005,-0.001,0.005,0.005,0.002,0.003
478,0.002,0.005,0.004,-0.002,0.004,0.004,0,0.001
479,0.002,0.004,0.003,-0.001,0.003,0.003,-0.001,0
480,0.003,0.004,0.004,-0.002,0.003,0.003,-0.001,0.001
481,0.002,0.004,0.004,-0.006,0.003,0.003,0,0.001
482,0.001,0.003,0.003,-0.008,0.002,0.002,-0.001,0
483,-0.001,0,0,-0.011,0,-0.001,-0.003,-0.003
484,-0.003,-0.002,-0.003,-0.012,-0.003,-0.004,-0.007,-0.006
485,-0.003,-0.002,-0.002,-0.009,-0.003,-0.003,-0.006,-0.006
486,-0.002,0,0,-0.009,-0.001,-0.001,-0.004,-0.004
487,0.001,0.004,0.005,-0.006,0.003,0.003,-0.001,0
488,0.002,0.003,0.004,-0.008,0.003,0.003,-0.001,0
489,0.001,0.003,0.003,-0.009,0.002,0.002,-0.002,-0.001
490,0.002,0.003,0.004,-0.006,0.003,0.002,-0.001,0
491,0.001,0.002,0.003,-0.005,0.002,0.001,-0.002,-0.001
492,0,0.001,0,-0.005,0,0,-0.004,-0.003
493,-0.003,-0.001,-0.002,-0.01,-0.002,-0.003,-0.006,-0.005
494,-0.002,-0.001,-0.001,-0.012,-0.002,-0.003,-0.005,-0.005
495,0,0.002,0.002,-0.009,0,-0.001,-0.002,-0.002
496,0,0.002,0.002,-0.006,0,-0.001,-0.003,-0.002
497,0.001,0.002,0.002,-0.003,0,-0.001,-0.003,-0.002
498,0,0,0.002,-0.005,0,-0.001,-0.004,-0.002
499,-0.001,-0.001,0.001,-0.005,-0.001,-0.002,-0.005,-0.004
500,-0.002,0,0,-0.008,-0.002,-0.002,-0.005,-0.005
501,0,0.002,0.003,-0.008,0,0,-0.004,-0.003
502,0,0.002,0.003,-0.009,0.001,0.001,-0.002,-0.002
503,-0.001,0.001,0.002,-0.011,0,0,-0.003,-0.003
504,-0.003,-0.003,-0.001,-0.012,-0.002,-0.002,-0.005,-0.005
505,-0.003,-0.002,-0.001,-0.016,-0.002,-0.001,-0.005,-0.004
506,-0.001,0,0.001,-0.018,0.001,0.001,-0.003,-0.001
507,0,0.001,0.002,-0.016,0.001,0.001,-0.003,-0.002
508,-0.001,0,0,-0.013,0,-0.001,-0.004,-0.003
509,-0.002,-0.003,-0.002,-0.013,-0.003,-0.003,-0.005,-0.006
510,-0.002,-0.001,-0.001,-0.017,-0.002,-0.002,-0.005,-0.006
511,-0.001,0,-0.001,-0.02,-0.001,-0.002,-0.004,-0.006
512,-0.002,0.001,0,-0.018,-0.001,-0.002,-0.005,-0.005
513,-0.003,-0.001,-0.001,-0.016,-0.003,-0.003,-0.006,-0.005
514,-0.005,-0.004,-0.003,-0.015,-0.005,-0.005,-0.008,-0.007
515,-0.006,-0.004,-0.003,-0.015,-0.006,-0.006,-0.009,-0.008
516,-0.004,-0.003,-0.002,-0.015,-0.004,-0.005,-0.008,-0.007
517,-0.001,0.001,0.001,-0.012,-0.002,-0.002,-0.005,-0.003
518,0.001,0.002,0.002,-0.01,0,0,-0.003,-0.002
519,0.001,0.001,0.002,-0.01,-0.001,0,-0.004,-0.003
520,-0.003,-0.003,-0.001,-0.013,-0.004,-0.004,-0.008,-0.007
521,-0.008,-0.006,-0.004,-0.015,-0.007,-0.007,-0.01,-0.01
522,-0.01,-0.007,-0.007,-0.014,-0.009,-0.01,-0.012,-0.012
523,-0.007,-0.005,-0.004,-0.01,-0.006,-0.007,-0.01,-0.01
524,-0.004,-0.002,-0.002,-0.01,-0.004,-0.004,-0.008,-0.007
525,-0.004,-0.003,-0.003,-0.015,-0.005,-0.005,-0.009,-0.008
526,-0.005,-0.004,-0.004,-0.017,-0.006,-0.006,-0.009,-0.009
527,-0.005,-0.003,-0.003,-0.014,-0.005,-0.006,-0.008,-0.008
528,-0.004,-0.002,-0.002,-0.011,-0.004,-0.005,-0.006,-0.006
529,-0.005,-0.003,-0.003,-0.012,-0.005,-0.004,-0.006,-0.006
530,-0.005,-0.003,-0.004,-0.014,-0.005,-0.004,-0.006,-0.006
531,-0.001,0.001,0.001,-0.01,0,0,-0.003,-0.003
532,0.001,0.003,0.003,-0.01,0.001,0.001,-0.002,-0.001
533,-0.001,0.001,0.001,-0.014,-0.002,-0.002,-0.005,-0.004
534,-0.007,-0.004,-0.005,-0.017,-0.008,-0.007,-0.01,-0.009
535,-0.007,-0.006,-0.006,-0.016,-0.008,-0.008,-0.011,-0.01
536,-0.006,-0.005,-0.004,-0.015,-0.007,-0.007,-0.011,-0.01
537,-0.005,-0.004,-0.003,-0.017,-0.005,-0.006,-0.009,-0.008
538,-0.005,-0.003,-0.004,-0.02,-0.005,-0.006,-0.009,-0.008
539,-0.001,-0.001,-0.001,-0.017,-0.003,-0.003,-0.006,-0.004
540,0.002,0.002,0.002,-0.014,0.001,0,-0.003,-0.001
541,0.001,0.001,0.001,-0.013,-0.001,-0.001,-0.004,-0.003
542,-0.004,-0.003,-0.003,-0.015,-0.005,-0.005,-0.008,-0.007
543,-0.006,-0.006,-0.007,-0.016,-0.008,-0.008,-0.011,-0.01
544,-0.005,-0.005,-0.005,-0.016,-0.006,-0.006,-0.011,-0.009
545,-0.003,-0.003,-0.002,-0.013,-0.005,-0.005,-0.008,-0.007
546,-0.002,-0.001,-0.001,-0.012,-0.004,-0.003,-0.006,-0.006
547,-0.003,-0.001,-0.002,-0.015,-0.004,-0.003,-0.007,-0.007
548,-0.003,-0.002,-0.003,-0.016,-0.004,-0.003,-0.007,-0.007
549,-0.004,-0.003,-0.003,-0.018,-0.005,-0.003,-0.009,-0.007
550,-0.005,-0.003,-0.003,-0.018,-0.005,-0.005,-0.011,-0.008
551,-0.007,-0.005,-0.004,-0.018,-0.005,-0.008,-0.012,-0.009
552,-0.005,-0.003,-0.003,-0.015,-0.003,-0.007,-0.009,-0.008
553,0,0.001,0.001,-0.011,0,-0.002,-0.005,-0.004
554,0.002,0.004,0.003,-0.008,0.001,0.001,-0.003,-0.002
555,-0.001,0.003,0.002,-0.006,0,-0.001,-0.004,-0.003
556,-0.004,0,-0.001,-0.009,-0.003,-0.004,-0.007,-0.006
557,-0.005,-0.003,-0.002,-0.014,-0.006,-0.006,-0.008,-0.008
558,-0.006,-0.003,-0.003,-0.016,-0.006,-0.005,-0.009,-0.008
559,-0.004,-0.002,-0.002,-0.014,-0.004,-0.004,-0.007,-0.006
560,-0.003,-0.001,-0.002,-0.013,-0.004,-0.004,-0.006,-0.006
561,-0.003,-0.002,-0.002,-0.015,-0.005,-0.005,-0.006,-0.007
562,-0.003,-0.002,-0.002,-0.015,-0.006,-0.005,-0.006,-0.007
563,-0.005,-0.002,-0.003,-0.013,-0.007,-0.005,-0.007,-0.007
564,-0.007,-0.004,-0.004,-0.01,-0.008,-0.006,-0.009,-0.009
565,-0.009,-0.008,-0.008,-0.014,-0.011,-0.01,-0.014,-0.014
566,-0.012,-0.011,-0.011,-0.019,-0.013,-0.013,-0.017,-0.017
567,-0.009,-0.008,-0.009,-0.017,-0.011,-0.012,-0.014,-0.014
568,-0.006,-0.004,-0.005,-0.01,-0.007,-0.008,-0.009,-0.011
569,-0.002,-0.002,-0.001,-0.005,-0.004,-0.004,-0.006,-0.008
570,-0.001,-0.001,-0.001,-0.007,-0.003,-0.002,-0.006,-0.006
571,-0.002,-0.002,-0.002,-0.012,-0.004,-0.003,-0.006,-0.005
572,-0.005,-0.004,-0.004,-0.017,-0.006,-0.006,-0.008,-0.007
573,-0.011,-0.008,-0.009,-0.021,-0.01,-0.011,-0.013,-0.012
574,-0.011,-0.01,-0.009,-0.022,-0.011,-0.011,-0.014,-0.013
575,-0.007,-0.007,-0.006,-0.018,-0.008,-0.007,-0.012,-0.01
576,-0.002,-0.003,-0.003,-0.013,-0.004,-0.003,-0.009,-0.006
577,-0.003,-0.004,-0.004,-0.011,-0.005,-0.005,-0.008,-0.008
578,-0.008,-0.009,-0.009,-0.017,-0.01,-0.01,-0.012,-0.013
579,-0.01,-0.01,-0.01,-0.02,-0.012,-0.012,-0.013,-0.014
580,-0.006,-0.006,-0.005,-0.014,-0.007,-0.008,-0.01,-0.01
581,-0.001,0,0,-0.003,-0.002,-0.002,-0.005,-0.005
582,-0.003,-0.001,-0.001,-0.001,-0.002,-0.002,-0.006,-0.005
583,-0.006,-0.003,-0.003,0.001,-0.004,-0.004,-0.006,-0.007
584,-0.004,-0.002,-0.002,-0.001,-0.003,-0.001,-0.004,-0.005
585,-0.002,-0.002,-0.001,-0.001,-0.003,-0.001,-0.004,-0.003
586,-0.001,-0.002,0,-0.007,-0.003,-0.001,-0.004,-0.004
587,-0.003,-0.003,0,-0.012,-0.004,-0.002,-0.005,-0.004
588,-0.003,-0.002,-0.001,-0.014,-0.004,-0.003,-0.005,-0.005
589,-0.005,-0.004,-0.004,-0.015,-0.007,-0.005,-0.007,-0.008
590,-0.007,-0.007,-0.007,-0.011,-0.009,-0.008,-0.01,-0.012
591,-0.006,-0.005,-0.005,-0.008,-0.007,-0.006,-0.009,-0.01
592,-0.003,-0.001,-0.001,-0.011,-0.003,-0.002,-0.006,-0.006
593,0,0.003,0.003,-0.015,0,0.001,-0.002,-0.002
594,0.002,0.002,0.003,-0.009,0.001,0.002,-0.002,-0.001
595,0.005,0.003,0.006,0.003,0.004,0.003,-0.001,0.001
596,0.004,0.002,0.004,0.007,0.003,0.003,-0.002,0
597,0.001,0,-0.001,-0.001,0.001,-0.001,-0.004,-0.002
598,-0.003,-0.003,-0.005,-0.007,-0.003,-0.005,-0.007,-0.007
599,-0.004,-0.004,-0.005,-0.008,-0.004,-0.004,-0.008,-0.008
600,-0.003,-0.004,-0.003,-0.006,-0.005,-0.003,-0.007,-0.006
601,-0.001,-0.001,-0.001,-0.009,-0.003,-0.002,-0.007,-0.004
602,0,0.001,-0.001,-0.011,-0.003,-0.002,-0.007,-0.003
603,0,0.001,0.001,-0.009,-0.002,-0.002,-0.005,-0.003
604,0.001,0.002,0.002,-0.007,-0.001,0,-0.003,-0.003
605,0.002,0.002,0.003,-0.007,0,0.001,-0.003,-0.002
606,0,0,-0.001,-0.007,-0.003,-0.002,-0.005,-0.005
607,-0.001,0,-0.002,-0.007,-0.003,-0.003,-0.007,-0.007
608,0.002,0.002,0.002,-0.003,0.002,0.001,-0.002,-0.003
609,0.007,0.008,0.007,-0.004,0.006,0.006,0.004,0.002
610,0.007,0.008,0.008,-0.001,0.007,0.007,0.004,0.004
611,0.006,0.009,0.007,0.004,0.007,0.006,0.003,0.004
612,0.005,0.007,0.006,0.003,0.005,0.005,0.002,0.003
613,0.004,0.005,0.005,0.001,0.004,0.004,-0.001,0.001
614,0.001,0.003,0.003,-0.004,0.002,0.002,-0.002,-0.001
615,0.002,0.005,0.003,-0.009,0.003,0.003,0,0
616,0.008,0.01,0.008,-0.008,0.009,0.008,0.006,0.007
617,0.009,0.011,0.01,-0.01,0.009,0.007,0.007,0.008
618,0.005,0.006,0.006,-0.012,0.007,0.002,0.003,0.003
619,-0.001,0,0,-0.014,0.002,-0.003,-0.004,-0.003
620,-0.001,0,-0.001,-0.009,0.002,-0.001,-0.004,-0.002
621,0.005,0.008,0.007,0.004,0.008,0.007,0.003,0.005
622,0.013,0.016,0.016,0.015,0.014,0.015,0.011,0.011
623,0.015,0.016,0.017,0.014,0.014,0.015,0.012,0.01
624,0.008,0.009,0.011,0.002,0.006,0.007,0.006,0.004
625,0.003,0.004,0.006,-0.009,0.001,0.002,0.001,0
626,0.004,0.005,0.008,-0.005,0.004,0.004,0.002,0.002
627,0.013,0.012,0.014,0.008,0.012,0.011,0.006,0.008
628,0.018,0.017,0.018,0.017,0.017,0.015,0.01,0.012
629,0.016,0.016,0.016,0.014,0.016,0.014,0.01,0.01
630,0.011,0.011,0.012,0.008,0.011,0.01,0.007,0.007
631,0.008,0.007,0.008,0.001,0.008,0.007,0.004,0.004
632,0.007,0.007,0.007,0.003,0.006,0.005,0.004,0.005
633,0.007,0.007,0.007,0.009,0.006,0.005,0.003,0.004
634,0.009,0.011,0.01,0.012,0.01,0.008,0.006,0.007
635,0.013,0.015,0.014,0.013,0.014,0.012,0.009,0.01
636,0.015,0.016,0.015,0.01,0.015,0.014,0.011,0.012
637,0.011,0.012,0.01,0.003,0.01,0.009,0.008,0.007
638,0.005,0.008,0.006,0,0.006,0.007,0.004,0.003
639,0.002,0.006,0.005,0.005,0.004,0.005,0.002,0.001
640,0.002,0.004,0.005,0.012,0.001,0.003,-0.001,-0.003
641,0.003,0.003,0.005,0.011,0.001,0.002,-0.002,-0.004
642,0.004,0.005,0.006,0.01,0.004,0.004,0,-0.001
643,0.006,0.01,0.009,0.012,0.008,0.008,0.006,0.005
644,0.006,0.009,0.01,0.011,0.008,0.008,0.006,0.006
645,0.006,0.008,0.008,0.005,0.006,0.006,0.005,0.005
646,0.005,0.006,0.005,-0.006,0.005,0.003,0.002,0.003
647,0.007,0.007,0.006,-0.006,0.006,0.005,0.002,0.004
648,0.006,0.006,0.005,0.001,0.005,0.006,0.001,0.004
649,0.007,0.006,0.006,0.005,0.005,0.007,0.002,0.003
650,0.006,0.006,0.006,0.005,0.005,0.005,0.003,0.001
651,0.005,0.006,0.005,0.004,0.004,0.003,0.002,0.001
652,0.003,0.004,0.003,0.004,0.003,0.002,-0.001,0
653,0.002,0.003,0.001,0.001,0.002,0.001,-0.002,-0.002
654,0.004,0.005,0.004,0.002,0.005,0.003,0.001,-0.002
655,0.008,0.009,0.008,0.005,0.009,0.006,0.003,0.002
656,0.011,0.012,0.012,0,0.01,0.009,0.006,0.005
657,0.009,0.011,0.011,-0.005,0.008,0.008,0.005,0.004
658,0.002,0.004,0.004,-0.009,0.002,0.002,0,-0.002
659,-0.004,-0.004,-0.004,-0.008,-0.003,-0.004,-0.006,-0.008
660,-0.008,-0.006,-0.008,-0.01,-0.005,-0.005,-0.008,-0.009
661,-0.005,-0.003,-0.003,-0.008,-0.003,-0.002,-0.006,-0.004
662,0.002,0.006,0.004,0.001,0.005,0.005,0.001,0.004
663,0.007,0.01,0.009,0.008,0.009,0.008,0.005,0.007
664,0.008,0.011,0.009,0.011,0.01,0.008,0.006,0.007
665,0.006,0.009,0.008,0.015,0.008,0.007,0.006,0.005
666,0.007,0.008,0.007,0.017,0.009,0.008,0.004,0.004
667,0.01,0.009,0.009,0.017,0.01,0.008,0.004,0.005
668,0.009,0.009,0.009,0.011,0.009,0.007,0.003,0.003
669,0.002,0.004,0.003,0.003,0.003,0.002,-0.001,-0.002
670,-0.005,-0.003,-0.004,-0.006,-0.003,-0.004,-0.007,-0.007
671,-0.006,-0.004,-0.004,-0.007,-0.004,-0.006,-0.01,-0.009
672,-0.004,-0.002,-0.003,-0.005,-0.002,-0.004,-0.008,-0.007
673,0.001,0.001,0.001,0.002,0.001,0,-0.003,-0.003
674,0.004,0.004,0.005,0.003,0.006,0.004,0.002,0.002
675,0.009,0.008,0.009,0.004,0.009,0.007,0.006,0.006
676,0.009,0.009,0.009,0.002,0.009,0.008,0.006,0.008
677,0.007,0.008,0.007,0.002,0.007,0.005,0.004,0.007
678,0.004,0.006,0.005,-0.002,0.005,0.004,0.001,0.004
679,0.001,0.003,0.002,-0.007,0.002,0.002,-0.001,-0.001
680,0,0.003,0.001,-0.006,0.001,0.002,-0.002,-0.004
681,0.001,0.002,0.001,-0.003,0,0.002,-0.004,-0.004
682,0.001,0.003,0,0,0.002,0.002,-0.003,-0.002
683,0.001,0.002,0.001,-0.001,0.003,0.002,-0.002,-0.001
684,0.001,0.003,0.002,0.002,0.003,0,-0.003,-0.002
685,0.005,0.007,0.006,0.004,0.006,0.004,0.001,0.001
686,0.009,0.011,0.012,-0.001,0.009,0.009,0.007,0.006
687,0.008,0.01,0.01,-0.007,0.008,0.009,0.006,0.005
688,0.004,0.005,0.003,-0.015,0.006,0.005,0.001,0.001
689,-0.001,0,-0.002,-0.017,0.001,-0.001,-0.006,-0.004
690,-0.003,-0.002,-0.003,-0.01,-0.001,-0.003,-0.009,-0.005
691,0,0.001,0,-0.002,-0.001,-0.002,-0.006,-0.003
692,0.006,0.007,0.007,0.01,0.006,0.003,0.002,0.003
693,0.01,0.008,0.009,0.009,0.01,0.007,0.006,0.006
694,0.008,0.006,0.006,0.005,0.006,0.006,0.003,0.004
695,0.006,0.006,0.005,-0.004,0.004,0.003,0,0.002
696,0.003,0.004,0.004,-0.01,0,0,-0.003,-0.001
697,0.002,0.001,0.002,-0.015,-0.001,-0.002,-0.004,-0.004
698,0.004,0.003,0.003,-0.011,0.002,0.002,-0.001,-0.002
699,0.008,0.009,0.006,-0.007,0.005,0.008,0.004,0.002
700,0.008,0.009,0.007,-0.002,0.006,0.007,0.005,0.001
701,0.007,0.008,0.007,0.003,0.006,0.005,0.004,0.001
702,0.008,0.009,0.008,0.005,0.008,0.006,0.004,0.004
703,0.009,0.009,0.008,0.003,0.01,0.008,0.006,0.006
704,0.006,0.006,0.005,0.002,0.006,0.004,0.004,0.002
705,0.002,0.004,0.003,0.001,0.001,0.002,0.001,-0.001
706,0.001,0.002,0.003,0.004,-0.001,0,-0.002,-0.002
707,0.004,0.002,0.004,0.007,0.002,0.001,0,-0.001
708,0.007,0.003,0.006,0.006,0.004,0.003,0,0
709,0.005,0.004,0.005,0,0.004,0.003,0,0.001
710,0.003,0.003,0.004,-0.004,0.004,0.003,-0.001,0.001
711,0,0.002,0.001,-0.009,0.002,0.001,-0.002,-0.001
712,0.001,0,0.002,-0.01,0.001,0.001,-0.002,-0.002
713,0.005,0.004,0.005,-0.003,0.005,0.004,0.001,0.002
714,0.009,0.009,0.01,-0.001,0.01,0.007,0.004,0.006
715,0.007,0.008,0.008,-0.008,0.008,0.005,0.002,0.004
716,0.002,0.003,0.003,-0.011,0.004,0.002,-0.001,-0.001
717,-0.002,0.001,-0.001,-0.004,0,0,-0.004,-0.003
718,-0.003,0.003,0,-0.001,0,0,-0.004,-0.001
719,0.001,0.004,0.003,-0.002,0.001,0.003,-0.002,0
720,0.003,0.005,0.003,0,0.002,0.002,0,0
721,0.002,0.003,0.002,0,0.001,0,-0.002,-0.001
722,-0.002,0.002,0,-0.005,-0.001,-0.002,-0.004,-0.003
723,-0.004,-0.002,-0.001,-0.012,-0.003,-0.003,-0.005,-0.005
724,0.001,0.003,0,-0.011,0.001,0,-0.002,-0.002
725,0.003,0.005,0.004,-0.001,0.003,0.003,0.002,0.001
726,0.002,0.005,0.004,0.003,0.003,0.005,0.003,0.002
727,0,0.002,0.003,0.001,0.001,0.003,-0.002,-0.001
728,0,0.001,0.001,-0.007,-0.002,0,-0.004,-0.004
729,0.001,0.004,0.003,-0.003,0.001,0.001,-0.002,-0.002
730,0.003,0.006,0.006,0.001,0.005,0.006,0.004,0.002
731,0.009,0.009,0.011,0.01,0.011,0.011,0.008,0.006
732,0.013,0.011,0.012,0.011,0.012,0.012,0.008,0.008
733,0.011,0.011,0.01,0.01,0.01,0.01,0.006,0.007
734,0.004,0.006,0.005,0.006,0.003,0.004,0,0.002
735,-0.005,-0.001,-0.002,0.005,-0.004,-0.003,-0.007,-0.006
736,-0.011,-0.007,-0.009,0,-0.009,-0.009,-0.012,-0.012
737,-0.01,-0.007,-0.01,-0.006,-0.008,-0.01,-0.011,-0.011
738,-0.004,-0.002,-0.004,-0.011,-0.004,-0.005,-0.007,-0.005
739,0.001,0.003,0.002,-0.011,0,0,-0.002,0
740,0.003,0.003,0.003,-0.006,0.001,0.002,0,-0.002
741,0.002,0.003,0.003,0.003,0.003,0.005,0.001,-0.002
742,0,0.002,0.003,0.006,0.003,0.005,0.001,-0.002
743,0.002,0.001,0.003,0.005,0.002,0.001,0,-0.001
744,0.003,-0.001,0.002,0.004,-0.001,-0.001,-0.003,-0.003
745,0,-0.003,-0.001,-0.008,-0.006,-0.002,-0.006,-0.005
746,-0.006,-0.005,-0.005,-0.015,-0.009,-0.005,-0.007,-0.007
747,-0.006,-0.005,-0.007,-0.015,-0.008,-0.005,-0.007,-0.009
748,-0.005,-0.004,-0.007,-0.009,-0.007,-0.005,-0.007,-0.008
749,-0.004,-0.001,-0.004,-0.007,-0.003,-0.003,-0.004,-0.004
750,0,0,0,0,0,0,0,0
