,0,0,0,0,1,1,1,2,2,2,2
190,0.019,0.06,0.078,0.03,0.767,0.785,0.065,1.608,1.263,1.477,1.171
191,-0.008,-0.14,-0.127,-0.083,1.341,1.378,0.554,2.465,1.917,2.213,1.893
192,-0.042,0.009,-0.021,-0.085,1.926,1.966,1.363,2.653,2.115,2.803,2.482
193,-0.118,0.59,0.531,0.354,2.475,2.486,2.195,2.086,1.741,2.802,2.83
194,0.176,1.396,1.324,1.086,2.809,2.851,2.755,1.437,1.294,2.38,2.623
195,0.941,2.302,2.242,2.009,2.499,2.538,2.662,0.826,0.796,1.589,1.937
196,1.973,2.608,2.589,2.581,1.823,1.821,2.117,0.575,0.58,0.813,1.102
197,2.311,2.269,2.23,2.274,1.035,0.994,1.32,0.422,0.468,0.469,0.513
198,1.83,1.569,1.527,1.61,0.493,0.431,0.609,0.304,0.333,0.366,0.404
199,1.064,0.817,0.795,0.844,0.398,0.355,0.409,0.217,0.247,0.264,0.305
200,0.531,0.486,0.488,0.456,0.307,0.279,0.337,0.168,0.199,0.205,0.238
201,0.503,0.453,0.47,0.455,0.259,0.234,0.278,0.138,0.177,0.174,0.198
202,0.446,0.397,0.416,0.396,0.231,0.207,0.247,0.121,0.167,0.154,0.171
203,0.424,0.375,0.385,0.365,0.211,0.196,0.231,0.113,0.157,0.141,0.155
204,0.409,0.371,0.378,0.356,0.203,0.191,0.223,0.108,0.148,0.135,0.149
205,0.403,0.371,0.378,0.358,0.202,0.19,0.224,0.109,0.151,0.133,0.147
206,0.403,0.371,0.377,0.356,0.201,0.187,0.223,0.107,0.154,0.131,0.146
207,0.41,0.375,0.382,0.356,0.202,0.187,0.225,0.108,0.158,0.133,0.146
208,0.417,0.381,0.388,0.362,0.206,0.192,0.228,0.108,0.16,0.133,0.148
209,0.423,0.387,0.395,0.371,0.211,0.195,0.229,0.108,0.161,0.135,0.149
210,0.419,0.389,0.396,0.374,0.212,0.196,0.229,0.104,0.154,0.133,0.147
211,0.413,0.383,0.394,0.37,0.205,0.191,0.225,0.099,0.149,0.126,0.141
212,0.414,0.38,0.396,0.368,0.203,0.19,0.224,0.099,0.153,0.128,0.142
213,0.421,0.382,0.402,0.37,0.206,0.193,0.225,0.101,0.155,0.128,0.144
214,0.427,0.39,0.404,0.379,0.21,0.197,0.227,0.105,0.157,0.132,0.146
215,0.429,0.397,0.406,0.382,0.213,0.199,0.232,0.107,0.154,0.132,0.146
216,0.43,0.399,0.406,0.384,0.213,0.198,0.232,0.108,0.153,0.131,0.144
217,0.431,0.397,0.408,0.383,0.213,0.199,0.231,0.107,0.157,0.132,0.144
218,0.427,0.391,0.407,0.375,0.21,0.198,0.228,0.103,0.156,0.13,0.142
219,0.401,0.368,0.383,0.354,0.198,0.187,0.215,0.099,0.152,0.123,0.133
220,0.359,0.333,0.344,0.32,0.181,0.169,0.197,0.09,0.146,0.112,0.122
221,0.316,0.296,0.303,0.283,0.162,0.15,0.175,0.081,0.139,0.101,0.11
222,0.281,0.262,0.269,0.252,0.145,0.134,0.156,0.072,0.131,0.089,0.1
223,0.256,0.237,0.244,0.228,0.131,0.123,0.142,0.067,0.124,0.082,0.091
224,0.223,0.205,0.211,0.199,0.113,0.107,0.123,0.06,0.115,0.073,0.081
225,0.186,0.171,0.176,0.166,0.095,0.089,0.103,0.05,0.106,0.061,0.069
226,0.15,0.138,0.142,0.133,0.076,0.07,0.083,0.04,0.097,0.049,0.055
227,0.113,0.104,0.107,0.101,0.058,0.052,0.063,0.03,0.086,0.036,0.042
228,0.082,0.075,0.078,0.074,0.043,0.038,0.046,0.021,0.079,0.028,0.031
229,0.059,0.054,0.056,0.053,0.032,0.027,0.033,0.016,0.075,0.022,0.024
230,0.043,0.039,0.04,0.038,0.025,0.02,0.025,0.013,0.073,0.018,0.02
231,0.034,0.031,0.031,0.03,0.021,0.017,0.021,0.012,0.073,0.016,0.017
232,0.029,0.026,0.026,0.024,0.018,0.015,0.018,0.012,0.072,0.014,0.015
233,0.025,0.022,0.021,0.02,0.015,0.013,0.016,0.01,0.07,0.012,0.013
234,0.022,0.019,0.019,0.017,0.014,0.011,0.015,0.01,0.069,0.012,0.012
235,0.02,0.017,0.017,0.015,0.012,0.01,0.014,0.008,0.069,0.011,0.012
236,0.019,0.016,0.016,0.015,0.011,0.009,0.013,0.007,0.068,0.01,0.011
237,0.018,0.016,0.016,0.015,0.011,0.007,0.013,0.007,0.069,0.009,0.01
238,0.018,0.016,0.016,0.016,0.012,0.008,0.013,0.008,0.069,0.009,0.01
239,0.018,0.016,0.016,0.015,0.011,0.008,0.012,0.008,0.068,0.009,0.01
240,0.018,0.016,0.016,0.014,0.011,0.009,0.012,0.008,0.067,0.008,0.009
241,0.018,0.015,0.016,0.015,0.011,0.009,0.012,0.007,0.067,0.008,0.009
242,0.019,0.016,0.017,0.016,0.012,0.009,0.013,0.008,0.069,0.01,0.01
243,0.02,0.018,0.019,0.018,0.014,0.01,0.014,0.009,0.072,0.012,0.012
244,0.021,0.019,0.019,0.018,0.014,0.01,0.015,0.009,0.073,0.011,0.012
245,0.022,0.019,0.02,0.018,0.014,0.011,0.015,0.01,0.073,0.011,0.012
246,0.021,0.018,0.019,0.017,0.014,0.011,0.014,0.009,0.071,0.01,0.011
247,0.021,0.018,0.019,0.018,0.014,0.011,0.014,0.01,0.072,0.011,0.012
248,0.021,0.02,0.02,0.02,0.016,0.012,0.015,0.011,0.074,0.013,0.014
249,0.022,0.02,0.021,0.02,0.017,0.013,0.017,0.012,0.076,0.014,0.014
250,0.023,0.022,0.022,0.02,0.017,0.014,0.017,0.012,0.075,0.015,0.014
251,0.022,0.02,0.02,0.018,0.015,0.013,0.016,0.011,0.071,0.013,0.013
252,0.021,0.02,0.02,0.018,0.014,0.012,0.015,0.01,0.071,0.011,0.013
253,0.022,0.02,0.02,0.018,0.015,0.012,0.016,0.01,0.071,0.011,0.013
254,0.023,0.02,0.021,0.019,0.015,0.012,0.016,0.01,0.071,0.011,0.013
255,0.023,0.022,0.022,0.02,0.016,0.013,0.016,0.011,0.071,0.012,0.013
256,0.022,0.022,0.022,0.02,0.015,0.013,0.016,0.012,0.071,0.013,0.013
257,0.021,0.021,0.021,0.019,0.015,0.013,0.015,0.011,0.071,0.012,0.012
258,0.021,0.02,0.021,0.019,0.015,0.013,0.016,0.011,0.071,0.012,0.012
259,0.021,0.02,0.02,0.019,0.015,0.012,0.016,0.01,0.07,0.011,0.012
260,0.021,0.019,0.02,0.019,0.015,0.011,0.015,0.01,0.071,0.011,0.012
261,0.021,0.02,0.021,0.019,0.015,0.012,0.015,0.01,0.072,0.011,0.013
262,0.02,0.019,0.02,0.019,0.014,0.012,0.015,0.01,0.071,0.012,0.013
263,0.019,0.019,0.019,0.017,0.013,0.012,0.014,0.01,0.071,0.011,0.012
264,0.019,0.017,0.018,0.016,0.013,0.011,0.014,0.009,0.069,0.01,0.011
265,0.018,0.017,0.018,0.015,0.012,0.01,0.013,0.008,0.068,0.009,0.01
266,0.018,0.017,0.017,0.016,0.012,0.01,0.013,0.008,0.067,0.009,0.009
267,0.017,0.017,0.017,0.016,0.012,0.01,0.013,0.008,0.067,0.009,0.01
268,0.017,0.016,0.015,0.015,0.013,0.009,0.013,0.008,0.067,0.009,0.01
269,0.017,0.016,0.015,0.015,0.013,0.01,0.014,0.009,0.067,0.01,0.011
270,0.015,0.015,0.015,0.014,0.012,0.009,0.013,0.009,0.065,0.009,0.01
271,0.014,0.014,0.013,0.013,0.01,0.008,0.012,0.008,0.064,0.009,0.009
272,0.013,0.011,0.011,0.012,0.009,0.006,0.011,0.007,0.064,0.007,0.008
273,0.011,0.01,0.01,0.01,0.009,0.006,0.01,0.006,0.064,0.007,0.007
274,0.011,0.011,0.01,0.011,0.009,0.006,0.011,0.007,0.066,0.007,0.007
275,0.01,0.01,0.01,0.01,0.009,0.006,0.01,0.007,0.065,0.007,0.007
276,0.01,0.01,0.009,0.009,0.008,0.006,0.009,0.007,0.062,0.006,0.007
277,0.009,0.01,0.009,0.009,0.008,0.005,0.009,0.006,0.06,0.006,0.007
278,0.009,0.009,0.008,0.009,0.007,0.005,0.009,0.006,0.057,0.005,0.006
279,0.01,0.01,0.008,0.009,0.008,0.005,0.01,0.006,0.056,0.005,0.006
280,0.008,0.008,0.008,0.008,0.007,0.005,0.009,0.006,0.055,0.005,0.005
281,0.007,0.007,0.006,0.007,0.007,0.004,0.008,0.004,0.055,0.004,0.005
282,0.007,0.007,0.007,0.007,0.007,0.004,0.008,0.004,0.057,0.005,0.005
283,0.008,0.006,0.007,0.007,0.007,0.003,0.008,0.004,0.058,0.004,0.005
284,0.008,0.007,0.007,0.007,0.007,0.003,0.007,0.005,0.057,0.004,0.006
285,0.007,0.007,0.007,0.007,0.006,0.003,0.007,0.004,0.055,0.004,0.005
286,0.007,0.007,0.006,0.007,0.006,0.002,0.007,0.004,0.053,0.003,0.006
287,0.007,0.008,0.007,0.007,0.007,0.004,0.007,0.005,0.053,0.004,0.006
288,0.008,0.008,0.008,0.007,0.008,0.004,0.007,0.005,0.052,0.005,0.006
289,0.008,0.008,0.007,0.007,0.007,0.004,0.007,0.005,0.051,0.004,0.005
290,0.008,0.007,0.007,0.007,0.006,0.003,0.007,0.004,0.051,0.004,0.005
291,0.007,0.006,0.006,0.006,0.006,0.002,0.006,0.004,0.052,0.003,0.004
292,0.006,0.006,0.005,0.006,0.005,0.002,0.006,0.003,0.052,0.002,0.004
293,0.004,0.005,0.004,0.005,0.004,0.001,0.005,0.002,0.05,0.001,0.002
294,0.003,0.004,0.003,0.004,0.003,-0.001,0.004,0.001,0.047,0.0,0.001
295,0.003,0.004,0.002,0.003,0.002,-0.001,0.003,0.0,0.044,-0.001,0.001
296,0.004,0.005,0.003,0.003,0.003,-0.001,0.004,0.001,0.045,0.001,0.002
297,0.005,0.005,0.003,0.005,0.004,0.0,0.005,0.002,0.046,0.002,0.002
298,0.004,0.005,0.003,0.004,0.004,0.0,0.004,0.002,0.046,0.001,0.002
299,0.004,0.005,0.004,0.005,0.004,0.001,0.004,0.002,0.046,0.001,0.002
300,0.005,0.005,0.004,0.004,0.004,0.001,0.005,0.002,0.047,0.001,0.003
301,0.005,0.006,0.005,0.005,0.004,0.002,0.006,0.003,0.049,0.002,0.003
302,0.006,0.006,0.005,0.005,0.004,0.003,0.006,0.003,0.048,0.003,0.004
303,0.005,0.005,0.004,0.004,0.003,0.002,0.005,0.003,0.044,0.002,0.003
304,0.005,0.004,0.004,0.003,0.003,0.002,0.005,0.002,0.042,0.002,0.003
305,0.004,0.004,0.003,0.002,0.002,0.001,0.004,0.002,0.041,0.0,0.002
306,0.004,0.004,0.003,0.002,0.002,0.0,0.004,0.001,0.04,0.0,0.001
307,0.004,0.004,0.004,0.003,0.003,0.001,0.004,0.001,0.04,0.0,0.002
308,0.004,0.004,0.004,0.004,0.003,0.001,0.004,0.002,0.039,0.001,0.003
309,0.003,0.003,0.003,0.003,0.003,0.0,0.003,0.001,0.039,0.001,0.002
310,0.003,0.003,0.004,0.002,0.002,-0.001,0.003,0.001,0.039,0.0,0.001
311,0.003,0.003,0.003,0.002,0.002,-0.002,0.003,0.0,0.039,0.0,0.001
312,0.004,0.004,0.004,0.003,0.003,0.0,0.003,0.001,0.041,0.001,0.002
313,0.004,0.004,0.003,0.003,0.003,0.0,0.002,0.001,0.04,0.001,0.002
314,0.004,0.004,0.003,0.003,0.002,0.0,0.002,0.001,0.039,0.001,0.002
315,0.005,0.005,0.003,0.003,0.003,0.0,0.003,0.002,0.038,0.001,0.002
316,0.004,0.004,0.003,0.004,0.002,-0.001,0.003,0.001,0.035,0.001,0.002
317,0.005,0.005,0.004,0.004,0.003,0.0,0.005,0.002,0.035,0.001,0.003
318,0.005,0.005,0.005,0.004,0.003,0.001,0.004,0.002,0.035,0.001,0.003
319,0.004,0.004,0.004,0.004,0.002,0.001,0.004,0.002,0.034,0.001,0.003
320,0.003,0.004,0.003,0.003,0.002,0.001,0.003,0.002,0.034,0.001,0.002
321,0.003,0.003,0.002,0.002,0.001,0.0,0.003,0.001,0.034,0.0,0.002
322,0.002,0.003,0.002,0.002,0.001,-0.001,0.003,0.0,0.034,0.0,0.002
323,0.001,0.002,0.001,0.001,0.0,-0.002,0.001,-0.001,0.034,-0.002,0.0
324,0.001,0.001,0.001,0.001,0.0,-0.002,0.001,-0.001,0.033,-0.002,0.0
325,0.001,0.001,0.001,0.001,-0.001,-0.002,0.001,-0.001,0.032,-0.002,-0.001
326,0.002,0.002,0.001,0.002,-0.001,-0.001,0.001,0.0,0.03,-0.001,0.0
327,0.002,0.002,0.002,0.002,0.0,0.0,0.001,0.0,0.029,-0.001,0.001
328,0.002,0.003,0.002,0.001,0.0,0.0,0.001,0.0,0.029,-0.001,0.002
329,0.003,0.003,0.002,0.001,0.0,0.0,0.001,0.0,0.027,-0.001,0.001
330,0.002,0.001,0.001,0.0,0.0,-0.001,0.0,-0.001,0.026,-0.002,0.0
331,0.002,0.001,0.0,0.001,0.0,-0.001,0.0,-0.001,0.023,-0.002,-0.001
332,0.002,0.002,0.002,0.002,0.0,-0.001,0.001,0.0,0.026,-0.001,0.0
333,0.003,0.004,0.004,0.004,0.002,0.001,0.003,0.002,0.033,0.001,0.002
334,0.004,0.004,0.004,0.004,0.003,0.001,0.004,0.003,0.034,0.002,0.003
335,0.003,0.003,0.002,0.003,0.001,0.0,0.002,0.001,0.031,-0.001,0.001
336,0.002,0.002,0.0,0.001,0.0,0.0,0.001,0.0,0.025,-0.002,0.0
337,0.0,0.001,-0.001,-0.001,-0.002,-0.002,0.0,-0.001,0.023,-0.003,-0.001
338,0.001,0.001,0.0,0.0,-0.002,-0.002,-0.001,-0.002,0.026,-0.003,0.0
339,0.001,0.001,0.0,0.0,-0.002,-0.002,-0.001,-0.002,0.026,-0.002,0.0
340,0.002,0.002,0.001,0.0,-0.001,-0.001,-0.001,-0.002,0.025,-0.002,0.0
341,0.001,0.0,0.0,-0.001,-0.002,-0.002,-0.001,-0.002,0.025,-0.003,-0.001
342,-0.001,-0.001,-0.001,-0.001,-0.002,-0.003,-0.002,-0.003,0.025,-0.004,-0.002
343,-0.001,-0.001,-0.002,-0.001,-0.002,-0.003,-0.001,-0.002,0.027,-0.003,-0.001
344,0.001,0.001,0.0,0.0,-0.001,-0.002,0.0,-0.002,0.027,-0.001,0.0
345,0.003,0.002,0.002,0.002,0.001,0.0,0.002,0.0,0.027,0.0,0.001
346,0.002,0.001,0.001,0.001,-0.001,-0.001,0.001,-0.001,0.024,-0.002,0.0
347,0.001,0.0,0.001,0.001,-0.002,-0.002,-0.001,-0.002,0.023,-0.003,-0.002
348,0.001,0.0,0.001,0.0,-0.002,-0.002,-0.002,-0.002,0.023,-0.003,-0.002
349,0.002,0.001,0.001,0.0,-0.002,-0.002,-0.001,-0.002,0.022,-0.003,-0.002
350,0.003,0.002,0.001,0.001,-0.002,-0.001,0.0,-0.001,0.024,-0.001,0.0
351,0.003,0.002,0.001,0.001,-0.001,-0.001,0.001,-0.001,0.027,0.0,0.001
352,0.003,0.002,0.002,0.002,0.0,-0.001,0.001,0.0,0.029,-0.001,0.001
353,0.001,0.001,0.001,0.002,0.0,-0.001,0.001,-0.001,0.028,-0.002,0.0
354,0.0,0.001,0.0,0.001,-0.001,-0.002,0.0,-0.002,0.025,-0.004,-0.002
355,0.0,0.0,-0.002,-0.001,-0.002,-0.004,-0.001,-0.003,0.022,-0.005,-0.002
356,0.0,-0.001,-0.002,-0.001,-0.003,-0.005,-0.001,-0.003,0.022,-0.005,-0.003
357,0.002,0.001,0.0,0.0,-0.001,-0.002,0.001,-0.001,0.026,-0.003,-0.001
358,0.002,0.002,0.001,0.002,0.0,-0.001,0.002,0.001,0.029,-0.002,-0.001
359,0.003,0.003,0.002,0.003,0.001,0.001,0.003,0.002,0.03,-0.001,0.001
360,0.002,0.002,0.001,0.001,0.0,-0.001,0.002,0.0,0.028,-0.002,-0.001
361,0.0,0.0,-0.001,0.0,-0.002,-0.004,0.0,-0.002,0.028,-0.004,-0.003
362,-0.001,-0.001,-0.002,-0.001,-0.003,-0.005,-0.001,-0.003,0.027,-0.005,-0.003
363,-0.001,-0.001,-0.002,-0.002,-0.003,-0.005,-0.001,-0.003,0.025,-0.005,-0.003
364,-0.001,-0.001,-0.002,-0.001,-0.002,-0.004,0.0,-0.002,0.025,-0.004,-0.002
365,0.001,0.001,0.0,0.001,-0.001,-0.002,0.001,0.0,0.026,-0.002,-0.001
366,0.003,0.003,0.003,0.003,0.001,0.0,0.002,0.002,0.028,-0.001,0.001
367,0.005,0.005,0.005,0.004,0.003,0.002,0.003,0.003,0.029,0.001,0.003
368,0.005,0.006,0.005,0.004,0.004,0.002,0.004,0.003,0.031,0.001,0.004
369,0.004,0.005,0.005,0.003,0.003,0.002,0.004,0.002,0.031,0.001,0.003
370,0.004,0.004,0.004,0.003,0.003,0.002,0.004,0.003,0.033,0.001,0.003
371,0.003,0.004,0.003,0.003,0.003,0.002,0.003,0.002,0.033,0.001,0.003
372,0.004,0.004,0.004,0.003,0.004,0.002,0.003,0.003,0.032,0.002,0.003
373,0.005,0.005,0.005,0.004,0.005,0.002,0.004,0.003,0.032,0.002,0.004
374,0.005,0.005,0.005,0.004,0.004,0.002,0.004,0.003,0.03,0.002,0.004
375,0.004,0.005,0.005,0.003,0.003,0.001,0.004,0.003,0.029,0.001,0.003
376,0.004,0.004,0.004,0.004,0.003,0.001,0.004,0.003,0.029,0.001,0.003
377,0.004,0.004,0.003,0.004,0.002,0.0,0.004,0.002,0.029,0.0,0.002
378,0.003,0.004,0.002,0.004,0.002,0.0,0.003,0.001,0.029,-0.001,0.002
379,0.003,0.004,0.002,0.004,0.003,0.001,0.003,0.001,0.031,0.001,0.002
380,0.005,0.005,0.004,0.005,0.005,0.003,0.004,0.002,0.032,0.002,0.003
381,0.007,0.006,0.006,0.006,0.006,0.003,0.005,0.004,0.033,0.004,0.004
382,0.007,0.006,0.006,0.006,0.006,0.003,0.005,0.004,0.034,0.003,0.004
383,0.005,0.005,0.005,0.004,0.005,0.002,0.004,0.002,0.033,0.002,0.004
384,0.004,0.004,0.005,0.004,0.005,0.002,0.004,0.002,0.034,0.001,0.003
385,0.004,0.004,0.005,0.003,0.005,0.001,0.004,0.002,0.032,0.001,0.002
386,0.005,0.005,0.005,0.004,0.004,0.001,0.004,0.003,0.031,0.001,0.002
387,0.004,0.004,0.004,0.004,0.003,0.001,0.004,0.002,0.031,0.001,0.002
388,0.004,0.004,0.003,0.004,0.003,0.001,0.004,0.002,0.032,0.001,0.003
389,0.004,0.005,0.004,0.005,0.003,0.001,0.005,0.003,0.033,0.001,0.003
390,0.006,0.006,0.005,0.005,0.005,0.002,0.005,0.003,0.035,0.003,0.004
391,0.005,0.006,0.005,0.005,0.004,0.001,0.005,0.002,0.037,0.002,0.004
392,0.004,0.005,0.004,0.005,0.003,0.001,0.004,0.001,0.037,0.002,0.003
393,0.004,0.004,0.003,0.004,0.002,0.0,0.003,0.001,0.034,0.0,0.002
394,0.003,0.002,0.002,0.001,0.0,-0.001,0.002,0.0,0.028,-0.001,0.001
395,0.002,0.002,0.002,0.0,0.0,-0.001,0.001,0.0,0.024,-0.001,0.001
396,0.003,0.003,0.003,0.002,0.002,0.0,0.003,0.001,0.027,0.0,0.002
397,0.005,0.005,0.005,0.005,0.005,0.003,0.005,0.003,0.033,0.002,0.004
398,0.006,0.007,0.007,0.007,0.006,0.004,0.006,0.004,0.038,0.003,0.005
399,0.006,0.006,0.007,0.006,0.005,0.003,0.005,0.004,0.038,0.002,0.004
400,0.005,0.006,0.006,0.004,0.004,0.001,0.004,0.002,0.036,0.001,0.002
401,0.005,0.005,0.005,0.004,0.003,0.001,0.003,0.002,0.035,0.001,0.001
402,0.004,0.004,0.003,0.004,0.003,0.001,0.003,0.002,0.035,0.0,0.001
403,0.003,0.003,0.002,0.002,0.002,0.0,0.002,0.001,0.035,0.0,0.001
404,0.002,0.002,0.003,0.002,0.002,-0.001,0.002,0.001,0.036,0.0,0.002
405,0.004,0.004,0.004,0.004,0.003,0.001,0.004,0.003,0.035,0.001,0.004
406,0.005,0.006,0.006,0.007,0.005,0.003,0.006,0.004,0.033,0.003,0.005
407,0.007,0.006,0.006,0.007,0.005,0.004,0.006,0.005,0.031,0.004,0.006
408,0.007,0.006,0.006,0.006,0.005,0.004,0.006,0.005,0.034,0.003,0.005
409,0.006,0.006,0.006,0.005,0.005,0.004,0.005,0.005,0.037,0.003,0.005
410,0.006,0.006,0.006,0.006,0.006,0.003,0.005,0.004,0.039,0.003,0.005
411,0.006,0.007,0.006,0.006,0.006,0.003,0.005,0.005,0.037,0.003,0.005
412,0.005,0.007,0.006,0.007,0.005,0.004,0.005,0.005,0.033,0.003,0.006
413,0.005,0.006,0.005,0.006,0.003,0.003,0.004,0.003,0.031,0.003,0.005
414,0.005,0.005,0.005,0.006,0.003,0.002,0.005,0.004,0.034,0.003,0.005
415,0.007,0.006,0.006,0.006,0.005,0.003,0.006,0.005,0.038,0.004,0.006
416,0.006,0.006,0.005,0.005,0.005,0.003,0.005,0.005,0.036,0.003,0.004
417,0.006,0.006,0.005,0.005,0.004,0.003,0.005,0.004,0.032,0.003,0.004
418,0.005,0.005,0.005,0.005,0.004,0.002,0.004,0.004,0.031,0.003,0.004
419,0.005,0.004,0.005,0.006,0.004,0.002,0.004,0.003,0.032,0.004,0.005
420,0.006,0.005,0.005,0.007,0.005,0.003,0.005,0.004,0.035,0.004,0.006
421,0.004,0.004,0.004,0.004,0.003,0.002,0.003,0.002,0.036,0.002,0.003
422,0.004,0.004,0.004,0.004,0.003,0.002,0.002,0.001,0.038,0.001,0.002
423,0.004,0.004,0.004,0.004,0.003,0.002,0.003,0.002,0.039,0.002,0.003
424,0.003,0.003,0.004,0.004,0.003,0.001,0.002,0.001,0.038,0.002,0.003
425,0.003,0.003,0.004,0.005,0.003,0.0,0.003,0.002,0.037,0.002,0.003
426,0.003,0.003,0.003,0.004,0.002,-0.001,0.002,0.001,0.037,0.001,0.002
427,0.003,0.003,0.003,0.004,0.001,-0.001,0.002,0.001,0.035,0.001,0.002
428,0.004,0.004,0.004,0.004,0.002,0.0,0.003,0.002,0.033,0.001,0.002
429,0.004,0.003,0.003,0.003,0.001,0.0,0.003,0.002,0.03,0.001,0.003
430,0.004,0.003,0.004,0.003,0.002,0.001,0.004,0.002,0.028,0.001,0.003
431,0.004,0.003,0.004,0.003,0.002,0.001,0.003,0.002,0.028,0.001,0.003
432,0.005,0.004,0.005,0.004,0.003,0.003,0.004,0.003,0.032,0.002,0.004
433,0.007,0.006,0.006,0.005,0.005,0.004,0.005,0.005,0.036,0.004,0.005
434,0.005,0.006,0.005,0.004,0.005,0.003,0.005,0.005,0.037,0.003,0.005
435,0.003,0.004,0.004,0.004,0.004,0.001,0.004,0.004,0.033,0.002,0.003
436,0.003,0.004,0.004,0.005,0.003,0.0,0.003,0.002,0.032,0.001,0.002
437,0.005,0.007,0.005,0.006,0.004,0.002,0.004,0.003,0.032,0.002,0.004
438,0.007,0.008,0.007,0.007,0.006,0.004,0.006,0.005,0.032,0.003,0.006
439,0.007,0.007,0.006,0.006,0.005,0.004,0.005,0.004,0.031,0.002,0.004
440,0.006,0.005,0.005,0.005,0.003,0.002,0.003,0.003,0.031,0.0,0.003
441,0.004,0.004,0.004,0.004,0.002,0.0,0.002,0.001,0.03,-0.001,0.002
442,0.003,0.003,0.002,0.003,0.001,0.0,0.001,0.0,0.028,-0.001,0.002
443,0.003,0.004,0.003,0.002,0.002,0.001,0.002,0.001,0.025,0.001,0.002
444,0.003,0.004,0.004,0.003,0.001,0.001,0.002,0.002,0.025,0.001,0.002
445,0.005,0.006,0.006,0.005,0.004,0.003,0.004,0.005,0.029,0.004,0.005
446,0.005,0.006,0.006,0.007,0.005,0.004,0.005,0.006,0.032,0.005,0.006
447,0.005,0.005,0.005,0.007,0.005,0.005,0.005,0.006,0.033,0.004,0.006
448,0.004,0.004,0.003,0.004,0.003,0.003,0.003,0.003,0.028,0.002,0.004
449,0.003,0.003,0.003,0.003,0.002,0.003,0.002,0.002,0.025,0.001,0.004
450,0.003,0.004,0.004,0.004,0.002,0.003,0.002,0.001,0.024,0.001,0.003
451,0.003,0.004,0.004,0.004,0.002,0.002,0.002,0.001,0.026,0.001,0.002
452,0.002,0.003,0.003,0.004,0.002,0.002,0.002,0.001,0.027,0.001,0.002
453,0.003,0.003,0.004,0.004,0.002,0.002,0.003,0.001,0.027,0.002,0.003
454,0.005,0.003,0.003,0.003,0.002,0.003,0.003,0.002,0.024,0.002,0.004
455,0.005,0.003,0.003,0.002,0.001,0.002,0.003,0.002,0.023,0.002,0.003
456,0.004,0.002,0.002,0.002,0.0,0.0,0.001,0.0,0.024,0.0,0.002
457,0.002,0.001,0.001,0.001,-0.001,-0.001,0.0,-0.001,0.025,-0.001,0.001
458,0.002,0.001,0.001,0.002,0.001,0.0,0.001,-0.001,0.029,0.0,0.002
459,0.002,0.001,0.001,0.003,0.001,-0.001,0.001,0.0,0.031,0.001,0.002
460,0.002,0.002,0.003,0.004,0.001,0.0,0.001,0.0,0.031,0.001,0.003
461,0.002,0.003,0.002,0.003,0.001,-0.001,0.001,0.0,0.026,0.0,0.002
462,0.002,0.003,0.002,0.001,0.0,-0.001,0.001,0.0,0.02,-0.001,0.001
463,0.003,0.003,0.003,0.002,0.001,0.0,0.002,0.0,0.019,0.001,0.002
464,0.005,0.004,0.005,0.005,0.002,0.001,0.003,0.002,0.021,0.003,0.004
465,0.006,0.005,0.005,0.006,0.002,0.001,0.004,0.002,0.024,0.004,0.005
466,0.005,0.005,0.004,0.004,0.002,0.001,0.004,0.002,0.026,0.002,0.003
467,0.003,0.003,0.003,0.002,0.001,0.001,0.002,0.002,0.028,0.0,0.002
468,0.001,0.002,0.002,0.001,0.0,-0.001,0.001,0.001,0.025,-0.001,0.002
469,0.001,0.001,0.002,0.002,0.0,-0.001,0.0,0.001,0.021,-0.001,0.002
470,0.003,0.002,0.002,0.003,0.001,0.0,0.001,0.002,0.019,0.001,0.003
471,0.004,0.005,0.004,0.005,0.003,0.002,0.003,0.003,0.02,0.003,0.005
472,0.006,0.006,0.006,0.007,0.004,0.003,0.004,0.005,0.022,0.004,0.006
473,0.007,0.006,0.007,0.007,0.004,0.003,0.005,0.005,0.024,0.004,0.006
474,0.005,0.004,0.005,0.004,0.002,0.0,0.004,0.003,0.022,0.001,0.003
475,0.004,0.003,0.004,0.003,0.001,-0.001,0.002,0.002,0.02,-0.001,0.001
476,0.003,0.002,0.002,0.002,0.0,-0.002,0.001,0.001,0.019,-0.001,0.0
477,0.002,0.001,0.001,0.002,-0.001,-0.002,0.001,-0.001,0.019,-0.001,0.001
478,0.001,0.0,-0.001,0.0,-0.002,-0.002,0.0,-0.002,0.018,-0.002,0.0
479,0.002,0.001,0.0,0.001,-0.002,-0.002,0.0,-0.001,0.017,-0.002,0.0
480,0.002,0.002,0.002,0.002,-0.001,-0.001,0.001,0.0,0.019,-0.001,0.0
481,0.003,0.003,0.004,0.003,0.0,0.0,0.002,0.001,0.023,0.0,0.002
482,0.003,0.003,0.004,0.003,0.001,0.002,0.002,0.002,0.031,0.001,0.003
483,0.002,0.002,0.003,0.002,0.0,0.001,0.002,0.001,0.036,0.001,0.003
484,0.0,-0.001,-0.001,0.0,-0.003,-0.002,-0.001,-0.002,0.025,-0.003,-0.001
485,-0.004,-0.004,-0.005,-0.003,-0.007,-0.006,-0.005,-0.006,0.009,-0.006,-0.004
486,-0.002,-0.003,-0.003,-0.001,-0.006,-0.004,-0.002,-0.004,0.007,-0.003,-0.002
487,0.002,0.002,0.002,0.003,-0.001,0.0,0.002,0.0,0.018,0.0,0.002
488,0.003,0.003,0.003,0.003,0.0,0.0,0.001,0.001,0.022,0.0,0.002
489,0.0,0.0,-0.001,-0.001,-0.004,-0.003,-0.002,-0.002,0.014,-0.004,0.0
490,-0.002,-0.002,-0.003,-0.004,-0.007,-0.005,-0.004,-0.004,0.011,-0.005,-0.003
491,-0.003,-0.003,-0.003,-0.005,-0.008,-0.006,-0.005,-0.006,0.013,-0.006,-0.004
492,-0.007,-0.007,-0.007,-0.008,-0.011,-0.009,-0.009,-0.009,0.007,-0.01,-0.007
493,-0.01,-0.009,-0.01,-0.01,-0.014,-0.01,-0.011,-0.009,0.001,-0.012,-0.009
494,-0.007,-0.007,-0.008,-0.008,-0.013,-0.008,-0.008,-0.007,0.0,-0.01,-0.007
495,-0.004,-0.003,-0.004,-0.003,-0.009,-0.006,-0.004,-0.004,0.009,-0.005,-0.003
496,-0.002,-0.002,-0.002,-0.001,-0.008,-0.005,-0.003,-0.003,0.014,-0.004,-0.002
497,-0.003,-0.002,-0.003,-0.002,-0.008,-0.004,-0.004,-0.004,0.014,-0.005,-0.003
498,-0.004,-0.003,-0.004,-0.004,-0.009,-0.005,-0.006,-0.005,0.009,-0.006,-0.004
499,-0.003,-0.004,-0.004,-0.004,-0.01,-0.005,-0.006,-0.006,0.001,-0.007,-0.005
500,-0.003,-0.004,-0.005,-0.004,-0.01,-0.005,-0.006,-0.007,-0.004,-0.007,-0.005
501,-0.002,-0.002,-0.004,-0.004,-0.009,-0.003,-0.004,-0.004,-0.002,-0.006,-0.004
502,-0.002,-0.002,-0.004,-0.005,-0.008,-0.002,-0.003,-0.003,0.0,-0.005,-0.004
503,-0.004,-0.004,-0.004,-0.005,-0.009,-0.003,-0.004,-0.004,-0.003,-0.006,-0.004
504,-0.005,-0.005,-0.005,-0.005,-0.01,-0.005,-0.005,-0.005,-0.008,-0.007,-0.005
505,-0.005,-0.006,-0.006,-0.006,-0.011,-0.006,-0.007,-0.006,-0.012,-0.009,-0.006
506,-0.006,-0.008,-0.008,-0.008,-0.013,-0.008,-0.009,-0.007,-0.01,-0.011,-0.008
507,-0.006,-0.009,-0.01,-0.009,-0.014,-0.009,-0.009,-0.008,-0.009,-0.011,-0.008
508,-0.006,-0.008,-0.01,-0.008,-0.013,-0.009,-0.008,-0.008,-0.008,-0.01,-0.007
509,-0.005,-0.007,-0.008,-0.007,-0.012,-0.008,-0.008,-0.008,-0.012,-0.01,-0.007
510,-0.003,-0.004,-0.006,-0.005,-0.01,-0.006,-0.007,-0.006,-0.014,-0.01,-0.006
511,-0.003,-0.004,-0.006,-0.005,-0.01,-0.007,-0.007,-0.006,-0.017,-0.01,-0.007
512,-0.004,-0.005,-0.005,-0.004,-0.009,-0.007,-0.007,-0.006,-0.021,-0.008,-0.004
513,-0.006,-0.006,-0.007,-0.005,-0.011,-0.008,-0.007,-0.007,-0.024,-0.008,-0.005
514,-0.008,-0.009,-0.009,-0.008,-0.013,-0.01,-0.009,-0.01,-0.026,-0.011,-0.008
515,-0.01,-0.011,-0.011,-0.01,-0.015,-0.012,-0.012,-0.012,-0.026,-0.013,-0.011
516,-0.011,-0.011,-0.012,-0.011,-0.016,-0.013,-0.012,-0.012,-0.026,-0.013,-0.012
517,-0.009,-0.009,-0.01,-0.01,-0.014,-0.011,-0.01,-0.009,-0.024,-0.011,-0.01
518,-0.008,-0.008,-0.009,-0.009,-0.014,-0.011,-0.009,-0.008,-0.022,-0.011,-0.009
519,-0.008,-0.009,-0.01,-0.009,-0.015,-0.011,-0.01,-0.009,-0.025,-0.012,-0.01
520,-0.009,-0.01,-0.011,-0.01,-0.016,-0.012,-0.012,-0.011,-0.029,-0.013,-0.011
521,-0.009,-0.01,-0.011,-0.01,-0.017,-0.012,-0.011,-0.012,-0.03,-0.013,-0.011
522,-0.008,-0.009,-0.01,-0.009,-0.016,-0.012,-0.01,-0.012,-0.029,-0.012,-0.011
523,-0.009,-0.01,-0.011,-0.009,-0.017,-0.013,-0.011,-0.012,-0.03,-0.013,-0.011
524,-0.008,-0.009,-0.011,-0.008,-0.016,-0.013,-0.01,-0.011,-0.031,-0.013,-0.01
525,-0.007,-0.008,-0.008,-0.006,-0.012,-0.01,-0.009,-0.008,-0.03,-0.01,-0.008
526,-0.007,-0.008,-0.008,-0.006,-0.012,-0.01,-0.009,-0.008,-0.029,-0.01,-0.008
527,-0.009,-0.01,-0.011,-0.008,-0.015,-0.011,-0.011,-0.01,-0.029,-0.01,-0.009
528,-0.011,-0.013,-0.013,-0.011,-0.017,-0.015,-0.014,-0.014,-0.034,-0.013,-0.012
529,-0.014,-0.015,-0.016,-0.014,-0.021,-0.018,-0.017,-0.016,-0.042,-0.017,-0.016
530,-0.015,-0.017,-0.017,-0.016,-0.023,-0.019,-0.017,-0.017,-0.05,-0.02,-0.017
531,-0.015,-0.016,-0.017,-0.016,-0.024,-0.018,-0.017,-0.017,-0.055,-0.02,-0.018
532,-0.011,-0.012,-0.013,-0.013,-0.018,-0.014,-0.013,-0.013,-0.048,-0.016,-0.014
533,-0.008,-0.01,-0.011,-0.011,-0.015,-0.011,-0.011,-0.011,-0.043,-0.014,-0.011
534,-0.009,-0.011,-0.012,-0.011,-0.016,-0.012,-0.012,-0.01,-0.044,-0.014,-0.01
535,-0.011,-0.013,-0.014,-0.012,-0.019,-0.014,-0.014,-0.012,-0.049,-0.016,-0.013
536,-0.012,-0.013,-0.014,-0.012,-0.019,-0.016,-0.016,-0.014,-0.053,-0.018,-0.014
537,-0.011,-0.012,-0.014,-0.012,-0.019,-0.016,-0.016,-0.015,-0.057,-0.017,-0.015
538,-0.011,-0.013,-0.015,-0.013,-0.02,-0.016,-0.016,-0.015,-0.06,-0.017,-0.015
539,-0.013,-0.014,-0.016,-0.015,-0.022,-0.015,-0.015,-0.015,-0.059,-0.017,-0.014
540,-0.012,-0.013,-0.014,-0.013,-0.019,-0.014,-0.013,-0.013,-0.054,-0.015,-0.012
541,-0.011,-0.011,-0.011,-0.01,-0.015,-0.012,-0.012,-0.012,-0.053,-0.013,-0.011
542,-0.011,-0.011,-0.012,-0.011,-0.017,-0.015,-0.013,-0.014,-0.058,-0.014,-0.013
543,-0.014,-0.015,-0.017,-0.016,-0.021,-0.019,-0.017,-0.017,-0.065,-0.019,-0.017
544,-0.015,-0.017,-0.019,-0.019,-0.025,-0.02,-0.019,-0.019,-0.068,-0.022,-0.02
545,-0.015,-0.016,-0.019,-0.019,-0.024,-0.019,-0.02,-0.018,-0.068,-0.022,-0.02
546,-0.013,-0.014,-0.016,-0.016,-0.021,-0.017,-0.018,-0.016,-0.064,-0.02,-0.017
547,-0.013,-0.014,-0.015,-0.015,-0.021,-0.018,-0.018,-0.015,-0.064,-0.019,-0.016
548,-0.014,-0.015,-0.017,-0.016,-0.023,-0.019,-0.019,-0.017,-0.064,-0.02,-0.017
549,-0.014,-0.016,-0.018,-0.017,-0.024,-0.019,-0.019,-0.018,-0.067,-0.02,-0.017
550,-0.013,-0.015,-0.017,-0.017,-0.023,-0.019,-0.018,-0.018,-0.069,-0.02,-0.016
551,-0.011,-0.013,-0.015,-0.014,-0.02,-0.016,-0.016,-0.015,-0.067,-0.017,-0.014
552,-0.011,-0.013,-0.014,-0.013,-0.019,-0.015,-0.015,-0.014,-0.065,-0.017,-0.014
553,-0.013,-0.014,-0.015,-0.014,-0.021,-0.016,-0.016,-0.014,-0.064,-0.017,-0.014
554,-0.014,-0.016,-0.016,-0.016,-0.022,-0.017,-0.017,-0.016,-0.064,-0.017,-0.015
555,-0.015,-0.016,-0.016,-0.017,-0.022,-0.019,-0.018,-0.017,-0.064,-0.018,-0.017
556,-0.013,-0.014,-0.015,-0.015,-0.02,-0.017,-0.016,-0.016,-0.062,-0.016,-0.015
557,-0.012,-0.013,-0.014,-0.014,-0.019,-0.016,-0.015,-0.016,-0.065,-0.016,-0.015
558,-0.014,-0.014,-0.017,-0.015,-0.02,-0.016,-0.016,-0.017,-0.066,-0.017,-0.016
559,-0.015,-0.016,-0.018,-0.017,-0.023,-0.016,-0.018,-0.018,-0.063,-0.019,-0.017
560,-0.015,-0.015,-0.017,-0.016,-0.022,-0.016,-0.017,-0.017,-0.06,-0.018,-0.016
561,-0.015,-0.016,-0.017,-0.016,-0.022,-0.017,-0.017,-0.017,-0.063,-0.019,-0.016
562,-0.015,-0.016,-0.017,-0.016,-0.021,-0.019,-0.018,-0.017,-0.064,-0.019,-0.016
563,-0.016,-0.017,-0.017,-0.016,-0.021,-0.019,-0.018,-0.017,-0.062,-0.019,-0.016
564,-0.014,-0.015,-0.017,-0.015,-0.019,-0.017,-0.017,-0.016,-0.059,-0.017,-0.015
565,-0.013,-0.014,-0.017,-0.014,-0.019,-0.016,-0.016,-0.015,-0.06,-0.017,-0.014
566,-0.015,-0.016,-0.019,-0.016,-0.021,-0.018,-0.018,-0.017,-0.063,-0.02,-0.016
567,-0.015,-0.016,-0.019,-0.017,-0.022,-0.02,-0.02,-0.018,-0.062,-0.02,-0.017
568,-0.015,-0.015,-0.017,-0.016,-0.022,-0.019,-0.018,-0.017,-0.06,-0.02,-0.016
569,-0.012,-0.012,-0.014,-0.012,-0.019,-0.016,-0.014,-0.014,-0.058,-0.017,-0.013
570,-0.011,-0.011,-0.012,-0.011,-0.018,-0.016,-0.013,-0.014,-0.057,-0.016,-0.012
571,-0.009,-0.01,-0.011,-0.01,-0.016,-0.014,-0.013,-0.013,-0.056,-0.014,-0.012
572,-0.006,-0.008,-0.009,-0.008,-0.014,-0.012,-0.012,-0.011,-0.054,-0.012,-0.01
573,-0.009,-0.009,-0.01,-0.008,-0.015,-0.014,-0.012,-0.01,-0.054,-0.014,-0.01
574,-0.011,-0.011,-0.013,-0.01,-0.017,-0.016,-0.014,-0.013,-0.055,-0.015,-0.012
575,-0.012,-0.012,-0.013,-0.011,-0.018,-0.016,-0.014,-0.014,-0.055,-0.016,-0.013
576,-0.01,-0.011,-0.013,-0.01,-0.017,-0.013,-0.013,-0.014,-0.056,-0.015,-0.011
577,-0.012,-0.012,-0.014,-0.011,-0.019,-0.013,-0.013,-0.013,-0.056,-0.015,-0.011
578,-0.013,-0.014,-0.016,-0.014,-0.02,-0.015,-0.016,-0.014,-0.051,-0.017,-0.013
579,-0.013,-0.014,-0.015,-0.015,-0.019,-0.015,-0.015,-0.013,-0.043,-0.017,-0.014
580,-0.012,-0.013,-0.013,-0.015,-0.017,-0.014,-0.014,-0.013,-0.039,-0.016,-0.012
581,-0.012,-0.013,-0.013,-0.014,-0.017,-0.014,-0.014,-0.013,-0.04,-0.015,-0.012
582,-0.013,-0.014,-0.013,-0.013,-0.017,-0.014,-0.014,-0.013,-0.043,-0.015,-0.012
583,-0.012,-0.014,-0.013,-0.011,-0.017,-0.014,-0.015,-0.014,-0.045,-0.014,-0.012
584,-0.012,-0.014,-0.014,-0.01,-0.017,-0.015,-0.015,-0.014,-0.045,-0.015,-0.013
585,-0.01,-0.01,-0.012,-0.009,-0.015,-0.013,-0.013,-0.011,-0.045,-0.012,-0.01
586,-0.005,-0.005,-0.006,-0.005,-0.011,-0.009,-0.008,-0.006,-0.04,-0.01,-0.007
587,-0.002,-0.001,-0.002,-0.003,-0.008,-0.006,-0.005,-0.004,-0.039,-0.006,-0.004
588,-0.002,-0.003,-0.003,-0.004,-0.008,-0.008,-0.005,-0.005,-0.036,-0.005,-0.005
589,-0.003,-0.004,-0.005,-0.005,-0.008,-0.009,-0.005,-0.006,-0.032,-0.006,-0.006
590,-0.005,-0.005,-0.005,-0.005,-0.007,-0.009,-0.005,-0.007,-0.026,-0.006,-0.004
591,-0.004,-0.003,-0.004,-0.004,-0.005,-0.006,-0.003,-0.005,-0.019,-0.006,-0.002
592,-0.004,-0.003,-0.004,-0.004,-0.006,-0.006,-0.004,-0.004,-0.018,-0.007,-0.003
593,-0.006,-0.005,-0.006,-0.007,-0.009,-0.008,-0.007,-0.005,-0.021,-0.011,-0.007
594,-0.009,-0.009,-0.009,-0.01,-0.012,-0.011,-0.011,-0.009,-0.024,-0.014,-0.01
595,-0.008,-0.009,-0.009,-0.009,-0.012,-0.011,-0.01,-0.01,-0.024,-0.012,-0.009
596,-0.003,-0.004,-0.004,-0.005,-0.007,-0.007,-0.005,-0.007,-0.02,-0.009,-0.006
597,0.0,-0.002,-0.002,-0.001,-0.004,-0.005,-0.003,-0.004,-0.022,-0.007,-0.005
598,-0.003,-0.005,-0.005,-0.006,-0.007,-0.009,-0.006,-0.007,-0.03,-0.01,-0.008
599,-0.005,-0.006,-0.006,-0.007,-0.009,-0.011,-0.008,-0.009,-0.035,-0.011,-0.009
600,-0.005,-0.006,-0.005,-0.007,-0.008,-0.011,-0.007,-0.009,-0.03,-0.01,-0.007
601,-0.002,-0.002,-0.001,0.0,-0.003,-0.008,-0.005,-0.006,-0.02,-0.006,-0.003
602,-0.003,-0.004,-0.002,-0.001,-0.004,-0.008,-0.006,-0.006,-0.014,-0.007,-0.003
603,-0.002,-0.003,-0.002,-0.002,-0.004,-0.005,-0.006,-0.004,-0.011,-0.007,-0.004
604,0.0,-0.002,-0.002,-0.001,-0.003,-0.003,-0.003,-0.003,-0.011,-0.005,-0.004
605,0.001,0.0,0.0,0.002,-0.001,-0.002,0.0,-0.002,-0.011,-0.002,-0.001
606,0.004,0.003,0.003,0.003,0.001,-0.001,0.002,0.0,-0.011,0.001,0.001
607,0.006,0.005,0.004,0.005,0.003,0.0,0.002,0.002,-0.007,0.001,0.003
608,0.004,0.004,0.004,0.005,0.003,-0.001,0.0,0.001,-0.004,0.0,0.002
609,0.002,0.001,0.003,0.005,0.001,-0.002,-0.001,-0.001,0.0,-0.001,0.002
610,0.003,0.001,0.003,0.004,-0.001,-0.003,0.0,-0.001,-0.001,0.0,0.001
611,0.004,0.002,0.004,0.002,0.0,-0.003,0.001,-0.001,-0.001,0.0,0.001
612,0.005,0.004,0.004,0.004,0.002,-0.001,0.003,0.0,-0.003,0.002,0.003
613,0.003,0.003,0.004,0.005,0.003,0.0,0.002,0.001,0.0,0.001,0.005
614,0.003,0.005,0.005,0.007,0.004,0.001,0.003,0.003,0.002,0.003,0.006
615,0.006,0.008,0.007,0.01,0.008,0.003,0.006,0.006,0.004,0.006,0.008
616,0.01,0.01,0.011,0.013,0.011,0.007,0.01,0.009,0.006,0.009,0.011
617,0.012,0.012,0.012,0.015,0.012,0.009,0.011,0.01,0.009,0.009,0.012
618,0.01,0.01,0.011,0.013,0.01,0.007,0.009,0.007,0.006,0.007,0.01
619,0.007,0.006,0.007,0.008,0.008,0.005,0.006,0.004,0.004,0.004,0.007
620,0.006,0.006,0.007,0.008,0.007,0.005,0.007,0.004,0.01,0.004,0.007
621,0.008,0.008,0.008,0.008,0.01,0.006,0.009,0.008,0.018,0.005,0.009
622,0.01,0.009,0.009,0.009,0.011,0.007,0.01,0.01,0.02,0.007,0.011
623,0.007,0.008,0.006,0.006,0.009,0.006,0.008,0.006,0.018,0.003,0.007
624,0.004,0.006,0.005,0.004,0.007,0.005,0.005,0.002,0.019,0.002,0.004
625,0.006,0.006,0.006,0.006,0.008,0.006,0.004,0.003,0.022,0.002,0.003
626,0.009,0.009,0.009,0.009,0.011,0.007,0.007,0.007,0.024,0.005,0.007
627,0.012,0.011,0.01,0.011,0.012,0.009,0.011,0.011,0.027,0.007,0.01
628,0.01,0.01,0.009,0.01,0.011,0.009,0.011,0.011,0.027,0.008,0.01
629,0.007,0.007,0.007,0.006,0.01,0.006,0.009,0.008,0.023,0.008,0.009
630,0.005,0.005,0.005,0.004,0.008,0.004,0.005,0.005,0.021,0.005,0.006
631,0.004,0.004,0.004,0.004,0.006,0.003,0.003,0.004,0.024,0.003,0.005
632,0.006,0.006,0.007,0.007,0.007,0.007,0.005,0.005,0.027,0.003,0.007
633,0.007,0.008,0.009,0.008,0.009,0.006,0.008,0.007,0.026,0.006,0.009
634,0.01,0.011,0.01,0.01,0.012,0.008,0.01,0.009,0.026,0.009,0.011
635,0.011,0.011,0.01,0.012,0.011,0.006,0.009,0.009,0.027,0.009,0.011
636,0.012,0.012,0.011,0.014,0.012,0.006,0.009,0.009,0.026,0.009,0.01
637,0.011,0.012,0.013,0.014,0.012,0.006,0.01,0.009,0.022,0.008,0.01
638,0.008,0.01,0.011,0.012,0.011,0.005,0.01,0.008,0.019,0.007,0.01
639,0.007,0.008,0.009,0.012,0.011,0.006,0.009,0.008,0.019,0.007,0.011
640,0.005,0.006,0.008,0.011,0.009,0.005,0.008,0.005,0.016,0.008,0.009
641,0.007,0.007,0.009,0.011,0.009,0.006,0.008,0.006,0.013,0.008,0.01
642,0.005,0.006,0.009,0.008,0.007,0.004,0.006,0.005,0.013,0.006,0.007
643,0.006,0.007,0.008,0.007,0.007,0.003,0.006,0.006,0.019,0.005,0.007
644,0.007,0.007,0.008,0.008,0.007,0.004,0.006,0.007,0.024,0.006,0.008
645,0.011,0.011,0.01,0.011,0.009,0.008,0.009,0.011,0.029,0.01,0.011
646,0.011,0.011,0.011,0.012,0.011,0.009,0.011,0.011,0.035,0.011,0.013
647,0.009,0.011,0.01,0.012,0.01,0.008,0.01,0.009,0.039,0.011,0.012
648,0.009,0.011,0.011,0.012,0.01,0.009,0.011,0.009,0.04,0.011,0.012
649,0.012,0.012,0.014,0.014,0.013,0.011,0.013,0.011,0.04,0.012,0.013
650,0.014,0.014,0.016,0.017,0.015,0.012,0.015,0.013,0.036,0.013,0.015
651,0.015,0.014,0.016,0.015,0.015,0.012,0.015,0.014,0.032,0.012,0.015
652,0.012,0.011,0.013,0.012,0.012,0.01,0.013,0.011,0.028,0.011,0.013
653,0.011,0.011,0.012,0.01,0.011,0.011,0.012,0.011,0.027,0.011,0.013
654,0.012,0.011,0.013,0.012,0.012,0.01,0.012,0.011,0.026,0.012,0.013
655,0.014,0.014,0.014,0.015,0.016,0.011,0.014,0.014,0.029,0.012,0.014
656,0.013,0.014,0.013,0.014,0.016,0.01,0.012,0.012,0.037,0.011,0.012
657,0.009,0.01,0.009,0.01,0.012,0.006,0.008,0.007,0.039,0.006,0.009
658,0.007,0.007,0.008,0.009,0.01,0.004,0.007,0.006,0.038,0.005,0.008
659,0.009,0.008,0.008,0.009,0.01,0.006,0.008,0.007,0.037,0.005,0.009
660,0.012,0.013,0.011,0.011,0.013,0.009,0.011,0.01,0.039,0.007,0.011
661,0.011,0.013,0.011,0.01,0.012,0.007,0.01,0.009,0.04,0.007,0.01
662,0.009,0.011,0.011,0.009,0.011,0.006,0.009,0.008,0.038,0.007,0.01
663,0.007,0.007,0.008,0.008,0.008,0.005,0.005,0.006,0.032,0.005,0.007
664,0.006,0.007,0.008,0.008,0.01,0.008,0.006,0.008,0.027,0.006,0.008
665,0.007,0.007,0.009,0.009,0.011,0.009,0.008,0.008,0.027,0.007,0.01
666,0.006,0.006,0.008,0.008,0.011,0.007,0.007,0.007,0.03,0.008,0.011
667,0.004,0.004,0.004,0.007,0.008,0.004,0.005,0.005,0.035,0.006,0.009
668,0.004,0.004,0.004,0.008,0.008,0.004,0.004,0.005,0.038,0.005,0.007
669,0.008,0.008,0.008,0.012,0.01,0.007,0.007,0.008,0.043,0.007,0.008
670,0.009,0.009,0.01,0.012,0.011,0.009,0.008,0.009,0.042,0.008,0.009
671,0.007,0.007,0.008,0.01,0.009,0.006,0.007,0.006,0.036,0.006,0.007
672,0.006,0.006,0.007,0.007,0.007,0.002,0.006,0.004,0.032,0.003,0.005
673,0.009,0.008,0.007,0.009,0.009,0.003,0.007,0.006,0.038,0.005,0.007
674,0.01,0.011,0.009,0.011,0.01,0.005,0.009,0.008,0.045,0.007,0.009
675,0.009,0.011,0.009,0.01,0.011,0.006,0.009,0.007,0.043,0.006,0.008
676,0.009,0.009,0.009,0.009,0.01,0.005,0.009,0.006,0.037,0.006,0.007
677,0.009,0.008,0.008,0.009,0.009,0.005,0.007,0.006,0.032,0.006,0.008
678,0.008,0.007,0.007,0.011,0.008,0.005,0.006,0.006,0.029,0.006,0.008
679,0.006,0.006,0.007,0.01,0.007,0.004,0.005,0.004,0.027,0.004,0.006
680,0.008,0.006,0.006,0.008,0.007,0.004,0.004,0.003,0.03,0.002,0.003
681,0.009,0.007,0.006,0.007,0.008,0.003,0.005,0.003,0.033,0.003,0.004
682,0.008,0.007,0.007,0.006,0.009,0.004,0.006,0.005,0.036,0.004,0.006
683,0.007,0.007,0.008,0.008,0.01,0.006,0.007,0.008,0.04,0.006,0.008
684,0.008,0.009,0.01,0.01,0.012,0.008,0.009,0.009,0.046,0.008,0.011
685,0.009,0.011,0.012,0.013,0.013,0.009,0.01,0.011,0.042,0.011,0.013
686,0.014,0.015,0.016,0.016,0.017,0.012,0.013,0.014,0.035,0.015,0.017
687,0.017,0.016,0.016,0.018,0.018,0.013,0.014,0.013,0.028,0.014,0.017
688,0.017,0.016,0.016,0.019,0.018,0.014,0.015,0.013,0.028,0.015,0.016
689,0.015,0.012,0.014,0.018,0.014,0.011,0.013,0.011,0.029,0.012,0.013
690,0.01,0.008,0.011,0.014,0.011,0.007,0.01,0.009,0.027,0.01,0.01
691,0.011,0.01,0.012,0.011,0.011,0.007,0.01,0.009,0.026,0.01,0.01
692,0.014,0.012,0.014,0.013,0.014,0.01,0.013,0.012,0.028,0.014,0.013
693,0.015,0.014,0.015,0.015,0.015,0.011,0.015,0.012,0.027,0.014,0.015
694,0.013,0.012,0.013,0.015,0.014,0.009,0.012,0.011,0.024,0.012,0.013
695,0.012,0.011,0.012,0.013,0.012,0.008,0.01,0.01,0.021,0.009,0.011
696,0.014,0.012,0.012,0.014,0.013,0.01,0.011,0.012,0.026,0.01,0.013
697,0.013,0.014,0.014,0.014,0.014,0.01,0.013,0.013,0.032,0.011,0.015
698,0.012,0.013,0.012,0.012,0.013,0.01,0.012,0.012,0.033,0.01,0.013
699,0.009,0.01,0.009,0.01,0.011,0.009,0.01,0.01,0.026,0.007,0.01
700,0.006,0.006,0.006,0.007,0.007,0.005,0.005,0.005,0.019,0.004,0.006
701,0.004,0.003,0.004,0.006,0.005,0.001,0.003,0.002,0.018,0.001,0.004
702,0.004,0.004,0.005,0.008,0.005,0.002,0.005,0.003,0.019,0.003,0.006
703,0.008,0.007,0.008,0.01,0.009,0.006,0.007,0.007,0.018,0.005,0.008
704,0.01,0.008,0.01,0.009,0.01,0.008,0.007,0.009,0.013,0.004,0.007
705,0.009,0.007,0.009,0.006,0.008,0.007,0.006,0.008,0.011,0.002,0.005
706,0.01,0.009,0.011,0.011,0.009,0.008,0.009,0.009,0.017,0.005,0.008
707,0.012,0.013,0.014,0.016,0.012,0.01,0.013,0.012,0.021,0.01,0.014
708,0.013,0.015,0.015,0.018,0.015,0.009,0.014,0.011,0.02,0.011,0.015
709,0.012,0.013,0.012,0.014,0.014,0.006,0.011,0.008,0.024,0.008,0.013
710,0.008,0.009,0.008,0.012,0.011,0.004,0.007,0.006,0.032,0.007,0.01
711,0.008,0.009,0.01,0.013,0.011,0.006,0.007,0.009,0.037,0.009,0.012
712,0.009,0.01,0.011,0.012,0.012,0.007,0.008,0.011,0.032,0.009,0.011
713,0.009,0.009,0.01,0.008,0.011,0.006,0.008,0.008,0.021,0.006,0.008
714,0.006,0.007,0.005,0.004,0.008,0.002,0.004,0.005,0.012,0.002,0.005
715,0.005,0.006,0.004,0.005,0.008,0.002,0.004,0.004,0.012,0.002,0.006
716,0.006,0.007,0.008,0.01,0.008,0.005,0.006,0.005,0.016,0.005,0.008
717,0.007,0.008,0.009,0.012,0.008,0.005,0.008,0.004,0.017,0.008,0.009
718,0.01,0.011,0.01,0.012,0.009,0.005,0.009,0.007,0.013,0.007,0.008
719,0.013,0.012,0.01,0.01,0.01,0.004,0.009,0.008,0.014,0.006,0.007
720,0.012,0.01,0.009,0.009,0.008,0.003,0.007,0.006,0.015,0.004,0.005
721,0.01,0.01,0.009,0.009,0.008,0.004,0.006,0.005,0.015,0.004,0.006
722,0.008,0.009,0.008,0.009,0.01,0.006,0.006,0.006,0.017,0.004,0.007
723,0.008,0.009,0.009,0.009,0.011,0.007,0.009,0.009,0.02,0.006,0.009
724,0.007,0.008,0.008,0.008,0.009,0.006,0.008,0.008,0.019,0.006,0.009
725,0.005,0.007,0.008,0.008,0.007,0.006,0.006,0.007,0.015,0.006,0.006
726,0.003,0.005,0.006,0.006,0.004,0.004,0.004,0.005,0.011,0.003,0.003
727,0.004,0.003,0.005,0.004,0.003,0.003,0.005,0.004,0.01,0.001,0.003
728,0.007,0.005,0.006,0.005,0.006,0.004,0.006,0.005,0.01,0.001,0.005
729,0.008,0.007,0.006,0.007,0.007,0.004,0.006,0.006,0.012,0.002,0.006
730,0.005,0.006,0.005,0.005,0.005,-0.001,0.001,0.002,0.013,0.0,0.002
731,0.005,0.006,0.005,0.006,0.006,-0.001,0.002,0.001,0.016,0.001,0.003
732,0.008,0.009,0.007,0.009,0.009,0.003,0.006,0.004,0.017,0.004,0.007
733,0.007,0.008,0.006,0.008,0.007,0.003,0.005,0.004,0.015,0.003,0.005
734,0.001,0.002,-0.001,0.0,0.0,-0.004,-0.003,-0.002,0.007,-0.005,-0.003
735,-0.002,-0.003,-0.005,-0.005,-0.006,-0.008,-0.007,-0.006,0.0,-0.01,-0.009
736,-0.001,-0.003,-0.003,-0.005,-0.006,-0.006,-0.005,-0.006,-0.003,-0.008,-0.007
737,0.002,-0.002,0.0,-0.001,-0.003,-0.003,-0.001,-0.003,-0.004,-0.005,-0.003
738,0.004,0.002,0.004,0.003,0.001,0.0,0.003,0.001,-0.002,-0.001,0.001
739,0.005,0.004,0.005,0.004,0.002,0.001,0.003,0.002,0.001,0.001,0.003
740,0.003,0.003,0.004,0.002,0.001,0.0,0.001,0.0,0.002,0.002,0.003
741,0.001,0.001,0.0,0.0,-0.001,-0.003,0.0,-0.001,-0.001,0.0,0.002
742,0.003,0.003,0.002,0.003,0.002,-0.001,0.003,0.002,-0.001,0.003,0.006
743,0.004,0.004,0.004,0.006,0.003,-0.001,0.004,0.003,0.003,0.004,0.008
744,0.001,0.0,0.003,0.005,0.002,-0.003,0.002,0.0,0.005,0.002,0.003
745,-0.002,-0.002,0.0,0.002,-0.001,-0.007,-0.001,-0.003,0.005,-0.002,-0.001
746,0.0,-0.001,0.0,0.002,-0.001,-0.007,-0.001,-0.002,0.004,-0.002,-0.001
747,0.0,-0.001,0.001,0.004,0.001,-0.004,-0.001,0.0,0.006,0.0,0.002
748,0.0,0.001,0.002,0.006,0.003,-0.001,-0.001,0.002,0.006,0.002,0.004
749,-0.001,0.0,0.0,0.004,0.002,0.0,-0.001,0.0,0.003,0.001,0.002
750,0.0,0.0,0.0,0.0,0.0,0.0,0.0,0.0,0.0,0.0,0.0
751,0.001,-0.001,0.0,-0.002,-0.003,-0.001,0.0,-0.001,-0.001,-0.002,0.0
752,0.002,0.0,0.001,-0.001,-0.004,-0.002,0.0,-0.001,-0.003,-0.001,0.0
753,0.0,-0.001,-0.001,-0.001,-0.005,-0.002,0.0,-0.002,-0.004,-0.001,0.0
754,0.0,-0.001,0.0,0.0,-0.003,-0.001,0.001,-0.002,0.001,0.0,0.0
755,0.002,-0.001,0.0,0.0,-0.001,-0.002,0.0,-0.002,0.004,0.0,0.001
756,0.004,0.002,0.003,0.004,0.003,-0.002,0.003,0.0,0.004,0.001,0.003
757,0.006,0.005,0.005,0.006,0.005,0.0,0.003,0.001,0.003,0.001,0.004
758,0.006,0.005,0.006,0.007,0.004,0.004,0.004,0.002,0.005,0.002,0.004
759,0.005,0.004,0.004,0.005,0.002,0.004,0.003,0.001,0.005,0.001,0.003
760,0.005,0.006,0.005,0.006,0.005,0.003,0.004,0.003,0.011,0.001,0.004
761,0.005,0.005,0.005,0.007,0.005,0.0,0.003,0.002,0.015,0.001,0.004
762,0.004,0.003,0.003,0.006,0.004,-0.003,0.004,0.002,0.016,0.002,0.005
763,0.004,0.003,0.003,0.006,0.003,-0.001,0.003,0.002,0.017,0.004,0.005
764,0.007,0.008,0.008,0.01,0.008,0.002,0.006,0.004,0.016,0.006,0.008
765,0.009,0.011,0.011,0.01,0.01,0.004,0.005,0.006,0.007,0.007,0.009
766,0.004,0.006,0.004,0.005,0.005,0.001,0.002,0.004,-0.004,0.002,0.004
767,0.001,0.001,0.001,0.001,0.0,-0.001,-0.001,0.002,-0.007,0.0,0.001
768,0.005,0.003,0.004,0.005,0.004,0.003,0.003,0.004,-0.002,0.003,0.007
769,0.009,0.007,0.008,0.009,0.008,0.006,0.007,0.006,0.004,0.006,0.012
770,0.009,0.007,0.007,0.009,0.008,0.005,0.005,0.004,0.007,0.007,0.009
771,0.004,0.005,0.004,0.004,0.003,0.002,0.002,0.002,0.006,0.004,0.004
772,0.002,0.002,0.002,0.002,0.0,0.0,0.0,0.0,0.004,0.002,0.001
773,0.001,0.001,0.001,0.002,-0.001,-0.001,0.001,0.001,0.005,0.001,0.001
774,0.003,0.001,0.004,0.004,0.002,-0.001,0.001,0.001,0.009,0.002,0.005
775,0.005,0.003,0.004,0.004,0.004,0.0,0.003,0.002,0.012,0.001,0.006
776,0.002,0.001,0.001,0.001,0.002,0.001,0.002,-0.002,0.009,-0.003,0.001
777,0.001,0.002,0.001,0.001,0.001,0.001,0.003,-0.001,0.008,-0.003,0.0
778,0.005,0.007,0.003,0.004,0.003,0.004,0.006,0.004,0.011,0.001,0.005
779,0.007,0.008,0.005,0.004,0.003,0.003,0.005,0.005,0.015,0.001,0.006
780,0.002,0.003,0.0,0.001,0.0,-0.002,0.001,0.0,0.016,-0.001,0.003
781,0.005,0.005,0.006,0.005,0.007,0.004,0.005,0.004,0.015,0.003,0.008
782,0.012,0.013,0.013,0.011,0.014,0.012,0.014,0.012,0.014,0.01,0.014
783,0.019,0.017,0.018,0.017,0.019,0.015,0.019,0.017,0.014,0.015,0.019
784,0.013,0.009,0.009,0.011,0.011,0.006,0.011,0.008,0.011,0.009,0.011
785,0.006,0.004,0.003,0.005,0.005,0.003,0.003,0.002,0.014,0.002,0.007
786,-0.003,-0.001,-0.003,-0.002,-0.001,-0.003,-0.004,-0.004,0.011,-0.004,0.001
787,0.002,0.002,0.002,0.002,0.005,-0.001,0.002,0.002,0.009,0.002,0.004
788,0.012,0.007,0.007,0.008,0.009,0.004,0.008,0.009,0.005,0.009,0.007
789,0.019,0.015,0.014,0.014,0.013,0.008,0.012,0.012,0.011,0.011,0.011
790,0.015,0.015,0.014,0.013,0.011,0.008,0.01,0.009,0.019,0.01,0.009
791,0.011,0.011,0.011,0.009,0.01,0.007,0.009,0.006,0.024,0.007,0.009
792,0.006,0.004,0.005,0.004,0.004,0.004,0.005,0.004,0.021,0.002,0.006
793,0.005,0.004,0.002,0.004,0.002,0.002,0.003,0.002,0.015,-0.001,0.005
794,0.005,0.003,0.001,0.004,0.003,0.001,0.002,0.0,0.007,-0.001,0.003
795,0.013,0.01,0.009,0.011,0.008,0.007,0.008,0.007,0.009,0.005,0.008
796,0.015,0.013,0.014,0.013,0.009,0.01,0.009,0.01,0.017,0.008,0.011
797,0.006,0.009,0.007,0.009,0.004,0.006,0.005,0.005,0.024,0.003,0.006
798,0.0,0.001,-0.001,0.0,0.002,-0.001,0.0,-0.001,0.024,-0.004,0.0
799,-0.003,-0.003,-0.003,-0.004,0.0,-0.003,0.0,-0.002,0.02,-0.005,-0.001
800,-0.004,-0.004,-0.003,-0.006,-0.004,-0.005,-0.002,-0.003,0.015,-0.005,-0.002
801,-0.006,-0.005,-0.004,-0.007,-0.007,-0.007,-0.004,-0.008,0.013,-0.003,-0.005
802,-0.002,-0.002,-0.001,-0.004,-0.002,-0.004,-0.002,-0.006,0.022,0.001,-0.003
803,0.002,0.002,0.002,0.002,0.003,0.002,0.002,-0.001,0.033,0.002,0.002
804,0.004,0.003,0.004,0.007,0.004,0.002,0.002,0.002,0.037,0.001,0.005
805,0.002,0.002,0.001,0.004,0.001,-0.002,-0.002,-0.002,0.031,0.0,0.004
806,-0.002,-0.002,0.0,-0.001,-0.002,-0.007,-0.003,-0.005,0.02,-0.002,0.0
807,-0.002,-0.003,-0.001,-0.003,-0.002,-0.005,-0.001,-0.004,0.017,-0.003,-0.003
808,-0.003,-0.002,0.0,-0.003,-0.001,-0.003,-0.002,-0.001,0.02,-0.005,-0.003
809,-0.003,0.0,-0.005,-0.004,0.0,-0.002,-0.006,-0.001,0.024,-0.006,-0.005
810,-0.001,0.003,-0.003,0.001,0.001,-0.001,-0.005,0.0,0.027,-0.002,-0.002
811,0.007,0.009,0.005,0.007,0.007,0.004,0.004,0.006,0.03,0.005,0.004
812,0.011,0.011,0.012,0.009,0.013,0.007,0.012,0.011,0.028,0.009,0.008
813,0.01,0.011,0.012,0.008,0.015,0.008,0.013,0.01,0.023,0.01,0.008
814,0.005,0.007,0.009,0.008,0.008,0.006,0.008,0.003,0.013,0.005,0.006
815,-0.003,-0.001,0.002,0.002,-0.002,-0.003,0.001,-0.006,0.002,-0.003,0.0
816,-0.003,-0.004,0.001,0.002,-0.004,-0.004,-0.002,-0.006,-0.004,-0.006,-0.005
817,0.003,0.002,0.004,0.005,0.001,0.0,0.003,0.002,0.005,-0.001,0.0
818,0.004,0.003,0.002,0.003,0.001,0.001,0.003,0.006,0.013,-0.001,0.002
819,-0.003,-0.003,-0.004,-0.003,-0.006,-0.007,-0.003,-0.003,0.013,-0.006,-0.003
820,-0.003,-0.004,-0.003,0.0,-0.005,-0.008,-0.004,-0.006,0.014,-0.005,-0.005
821,0.005,0.007,0.008,0.01,0.008,0.001,0.006,0.003,0.025,0.005,0.006
822,0.017,0.018,0.02,0.018,0.023,0.014,0.017,0.016,0.047,0.016,0.019
823,0.023,0.024,0.024,0.021,0.027,0.022,0.021,0.022,0.061,0.021,0.023
824,0.018,0.019,0.019,0.017,0.022,0.014,0.016,0.017,0.04,0.016,0.017
825,0.006,0.007,0.007,0.005,0.006,0.001,0.005,0.004,-0.004,0.002,0.005
826,-0.002,-0.004,-0.003,-0.005,-0.006,-0.008,-0.005,-0.006,-0.03,-0.008,-0.005
827,-0.003,-0.004,-0.004,-0.004,-0.006,-0.006,-0.004,-0.006,-0.012,-0.007,-0.005
828,0.002,0.002,0.003,0.005,0.001,0.0,0.001,0.001,0.01,0.0,0.0
829,0.007,0.006,0.006,0.01,0.006,0.004,0.005,0.006,0.012,0.005,0.007
830,0.003,0.003,0.002,0.007,-0.002,-0.001,0.002,0.004,-0.008,0.003,0.003
831,-0.004,-0.004,-0.005,0.001,-0.011,-0.011,-0.002,-0.003,-0.022,-0.004,-0.004
832,-0.008,-0.009,-0.008,-0.004,-0.017,-0.012,-0.006,-0.005,-0.025,-0.01,-0.009
833,-0.005,-0.004,-0.003,-0.001,-0.008,-0.005,-0.002,0.0,-0.009,-0.006,-0.001
834,0.005,0.007,0.007,0.009,0.006,0.008,0.01,0.01,0.013,0.007,0.012
835,0.009,0.013,0.012,0.017,0.013,0.009,0.014,0.013,0.017,0.013,0.018
836,0.003,0.005,0.004,0.01,0.004,0.002,0.005,0.004,-0.002,0.005,0.007
837,-0.003,-0.004,-0.003,0.001,-0.006,-0.006,-0.006,-0.008,-0.021,-0.007,-0.006
838,-0.008,-0.01,-0.007,-0.004,-0.013,-0.01,-0.008,-0.012,-0.027,-0.012,-0.011
839,-0.014,-0.01,-0.011,-0.008,-0.016,-0.012,-0.01,-0.01,-0.031,-0.012,-0.011
840,-0.009,-0.005,-0.008,-0.005,-0.009,-0.005,-0.005,-0.004,-0.017,-0.005,-0.005
