,0,0,0,1,1,1,2,2,2,3,3,3,4,4,4,5,5,5,6,6,6,7,7,7
220,0.246,0.264,0.267,0.152,0.136,0.133,-0.186,0.068,-0.314,1.053,0.908,1.201,0.127,0.107,0.108,0.063,0.064,0.059,0.345,0.382,0.36,0.607,0.678,0.654
221,0.247,0.264,0.268,0.15,0.138,0.135,0.163,0.197,0.006,0.696,0.675,0.686,0.148,0.124,0.126,0.076,0.074,0.07,0.34,0.375,0.352,0.56,0.638,0.59
222,0.259,0.276,0.28,0.158,0.145,0.14,0.283,0.252,0.255,0.501,0.404,0.499,0.169,0.143,0.145,0.087,0.086,0.082,0.339,0.373,0.351,0.522,0.596,0.558
223,0.275,0.293,0.298,0.171,0.156,0.149,0.343,0.326,0.282,0.68,0.594,0.7,0.191,0.161,0.164,0.098,0.097,0.094,0.341,0.376,0.352,0.492,0.565,0.53
224,0.294,0.316,0.32,0.185,0.167,0.159,0.459,0.435,0.386,0.766,0.724,0.806,0.214,0.181,0.186,0.11,0.109,0.105,0.341,0.377,0.356,0.457,0.52,0.492
225,0.319,0.343,0.348,0.196,0.18,0.173,0.633,0.613,0.564,0.825,0.84,0.883,0.243,0.203,0.211,0.123,0.122,0.118,0.348,0.384,0.362,0.42,0.478,0.458
226,0.347,0.373,0.379,0.206,0.194,0.187,0.844,0.825,0.778,0.828,0.894,0.888,0.273,0.229,0.237,0.139,0.135,0.132,0.357,0.393,0.37,0.383,0.437,0.429
227,0.38,0.41,0.416,0.219,0.212,0.204,0.986,0.96,0.923,0.737,0.846,0.793,0.31,0.26,0.269,0.156,0.153,0.15,0.37,0.407,0.384,0.349,0.397,0.397
228,0.415,0.45,0.456,0.236,0.231,0.222,0.966,0.934,0.911,0.584,0.694,0.631,0.349,0.293,0.303,0.174,0.171,0.167,0.388,0.428,0.402,0.322,0.366,0.371
229,0.449,0.488,0.494,0.255,0.25,0.241,0.787,0.75,0.742,0.411,0.508,0.451,0.389,0.325,0.337,0.193,0.189,0.185,0.408,0.451,0.424,0.305,0.344,0.355
230,0.485,0.526,0.534,0.273,0.272,0.261,0.561,0.529,0.529,0.278,0.348,0.305,0.431,0.359,0.373,0.213,0.21,0.205,0.434,0.48,0.452,0.299,0.338,0.352
231,0.521,0.564,0.572,0.293,0.291,0.279,0.38,0.358,0.358,0.19,0.239,0.209,0.473,0.393,0.409,0.235,0.231,0.225,0.464,0.513,0.483,0.303,0.342,0.352
232,0.556,0.603,0.611,0.309,0.312,0.299,0.265,0.249,0.248,0.134,0.169,0.148,0.515,0.43,0.446,0.258,0.254,0.247,0.496,0.549,0.516,0.314,0.352,0.361
233,0.594,0.644,0.652,0.325,0.333,0.32,0.199,0.187,0.187,0.101,0.127,0.111,0.56,0.469,0.487,0.281,0.276,0.27,0.532,0.588,0.554,0.328,0.368,0.375
234,0.629,0.682,0.69,0.343,0.354,0.34,0.167,0.156,0.156,0.084,0.107,0.093,0.606,0.509,0.528,0.304,0.299,0.293,0.568,0.626,0.591,0.346,0.388,0.394
235,0.667,0.721,0.731,0.362,0.376,0.361,0.15,0.14,0.14,0.076,0.097,0.084,0.654,0.55,0.57,0.329,0.324,0.316,0.604,0.665,0.63,0.367,0.411,0.414
236,0.7,0.758,0.768,0.385,0.396,0.38,0.143,0.133,0.135,0.072,0.092,0.081,0.699,0.588,0.61,0.354,0.347,0.339,0.638,0.703,0.665,0.388,0.433,0.433
237,0.732,0.792,0.801,0.407,0.417,0.4,0.141,0.131,0.133,0.072,0.091,0.08,0.741,0.624,0.646,0.377,0.369,0.362,0.671,0.742,0.7,0.408,0.456,0.451
238,0.764,0.825,0.833,0.425,0.436,0.42,0.141,0.132,0.133,0.072,0.091,0.08,0.78,0.659,0.679,0.399,0.39,0.383,0.704,0.777,0.735,0.427,0.478,0.467
239,0.794,0.86,0.866,0.441,0.455,0.439,0.143,0.134,0.134,0.073,0.093,0.08,0.818,0.691,0.711,0.419,0.411,0.403,0.738,0.811,0.771,0.446,0.5,0.482
240,0.827,0.893,0.901,0.453,0.474,0.457,0.146,0.137,0.137,0.074,0.095,0.081,0.858,0.724,0.746,0.439,0.431,0.422,0.771,0.845,0.805,0.465,0.52,0.5
241,0.857,0.927,0.938,0.467,0.49,0.472,0.148,0.139,0.139,0.074,0.095,0.082,0.899,0.757,0.781,0.458,0.449,0.44,0.804,0.878,0.836,0.48,0.538,0.52
242,0.884,0.957,0.968,0.479,0.502,0.483,0.151,0.141,0.141,0.076,0.097,0.083,0.937,0.784,0.811,0.474,0.464,0.455,0.83,0.912,0.864,0.494,0.552,0.536
243,0.899,0.972,0.983,0.486,0.509,0.489,0.155,0.144,0.145,0.078,0.1,0.085,0.958,0.801,0.825,0.483,0.473,0.464,0.844,0.93,0.878,0.501,0.561,0.545
244,0.901,0.974,0.984,0.489,0.512,0.492,0.159,0.149,0.149,0.08,0.103,0.089,0.962,0.806,0.828,0.487,0.476,0.468,0.847,0.933,0.882,0.504,0.564,0.547
245,0.901,0.974,0.982,0.489,0.513,0.494,0.161,0.151,0.152,0.082,0.105,0.09,0.957,0.802,0.823,0.485,0.474,0.467,0.844,0.93,0.88,0.505,0.566,0.548
246,0.912,0.986,0.995,0.491,0.517,0.498,0.163,0.152,0.153,0.082,0.105,0.09,0.955,0.799,0.821,0.483,0.471,0.463,0.848,0.937,0.883,0.508,0.571,0.548
247,0.927,1.004,1.013,0.495,0.522,0.504,0.164,0.153,0.154,0.083,0.106,0.091,0.956,0.794,0.818,0.478,0.467,0.459,0.854,0.947,0.89,0.513,0.575,0.553
248,0.928,1.007,1.019,0.496,0.523,0.505,0.167,0.156,0.157,0.085,0.108,0.093,0.944,0.781,0.804,0.469,0.458,0.45,0.849,0.943,0.885,0.513,0.575,0.551
249,0.909,0.988,0.998,0.489,0.516,0.498,0.171,0.16,0.161,0.087,0.111,0.096,0.915,0.757,0.776,0.455,0.444,0.437,0.827,0.92,0.864,0.505,0.565,0.547
250,0.872,0.946,0.956,0.473,0.498,0.48,0.172,0.161,0.162,0.088,0.113,0.098,0.87,0.72,0.735,0.434,0.425,0.417,0.79,0.876,0.826,0.487,0.544,0.531
251,0.83,0.898,0.909,0.451,0.474,0.456,0.172,0.161,0.162,0.088,0.113,0.098,0.82,0.678,0.691,0.409,0.4,0.393,0.749,0.831,0.782,0.462,0.517,0.506
252,0.785,0.851,0.86,0.428,0.447,0.429,0.172,0.161,0.163,0.089,0.115,0.099,0.766,0.631,0.642,0.38,0.371,0.364,0.704,0.783,0.734,0.435,0.487,0.477
253,0.735,0.8,0.807,0.4,0.417,0.4,0.176,0.165,0.167,0.09,0.115,0.099,0.702,0.575,0.586,0.346,0.338,0.331,0.651,0.728,0.681,0.405,0.455,0.443
254,0.685,0.746,0.752,0.373,0.389,0.373,0.18,0.169,0.171,0.091,0.117,0.1,0.63,0.511,0.521,0.309,0.301,0.295,0.595,0.668,0.624,0.376,0.424,0.417
255,0.64,0.695,0.703,0.349,0.364,0.35,0.179,0.168,0.17,0.09,0.116,0.099,0.55,0.443,0.449,0.269,0.262,0.256,0.54,0.608,0.567,0.349,0.393,0.394
256,0.607,0.657,0.665,0.331,0.344,0.332,0.175,0.164,0.166,0.088,0.113,0.097,0.471,0.377,0.38,0.229,0.222,0.216,0.49,0.555,0.515,0.325,0.366,0.372
257,0.581,0.63,0.638,0.32,0.329,0.317,0.172,0.161,0.163,0.088,0.112,0.097,0.398,0.317,0.316,0.191,0.185,0.18,0.448,0.51,0.47,0.307,0.344,0.352
258,0.552,0.6,0.607,0.305,0.312,0.301,0.176,0.165,0.166,0.09,0.114,0.099,0.329,0.261,0.258,0.157,0.151,0.147,0.406,0.463,0.427,0.287,0.322,0.329
259,0.512,0.558,0.563,0.284,0.288,0.278,0.186,0.175,0.176,0.095,0.121,0.104,0.269,0.211,0.208,0.127,0.122,0.119,0.363,0.414,0.381,0.264,0.296,0.305
260,0.457,0.5,0.504,0.254,0.256,0.247,0.194,0.182,0.184,0.099,0.125,0.108,0.219,0.171,0.168,0.104,0.099,0.097,0.317,0.362,0.332,0.235,0.265,0.28
261,0.39,0.427,0.431,0.22,0.219,0.211,0.192,0.181,0.183,0.098,0.123,0.107,0.181,0.141,0.137,0.086,0.082,0.08,0.268,0.307,0.281,0.202,0.228,0.249
262,0.317,0.347,0.351,0.185,0.18,0.173,0.182,0.171,0.173,0.093,0.117,0.102,0.153,0.119,0.116,0.073,0.07,0.068,0.221,0.253,0.231,0.168,0.19,0.215
263,0.247,0.271,0.274,0.151,0.143,0.138,0.169,0.159,0.161,0.087,0.109,0.096,0.131,0.102,0.1,0.062,0.059,0.058,0.176,0.202,0.184,0.137,0.152,0.182
264,0.186,0.204,0.207,0.121,0.111,0.106,0.158,0.149,0.151,0.082,0.104,0.092,0.113,0.09,0.088,0.056,0.053,0.052,0.139,0.159,0.145,0.109,0.119,0.154
265,0.14,0.154,0.158,0.095,0.085,0.081,0.153,0.144,0.146,0.08,0.101,0.088,0.099,0.08,0.079,0.05,0.047,0.047,0.111,0.127,0.116,0.087,0.094,0.131
266,0.109,0.119,0.124,0.078,0.066,0.064,0.15,0.143,0.144,0.078,0.099,0.086,0.091,0.074,0.073,0.046,0.045,0.043,0.093,0.107,0.096,0.072,0.079,0.116
267,0.089,0.096,0.101,0.067,0.053,0.052,0.143,0.136,0.137,0.074,0.093,0.081,0.087,0.07,0.07,0.043,0.042,0.041,0.081,0.093,0.083,0.061,0.068,0.105
268,0.076,0.082,0.086,0.063,0.046,0.044,0.13,0.123,0.124,0.067,0.084,0.073,0.086,0.069,0.069,0.043,0.042,0.04,0.075,0.084,0.076,0.054,0.061,0.101
269,0.067,0.072,0.077,0.061,0.042,0.041,0.117,0.109,0.112,0.06,0.076,0.066,0.086,0.07,0.07,0.044,0.044,0.041,0.071,0.079,0.071,0.049,0.057,0.098
270,0.06,0.065,0.07,0.058,0.039,0.038,0.105,0.098,0.1,0.054,0.07,0.06,0.086,0.071,0.07,0.045,0.044,0.042,0.068,0.075,0.068,0.046,0.052,0.093
271,0.058,0.063,0.068,0.056,0.038,0.036,0.092,0.086,0.088,0.048,0.062,0.053,0.086,0.072,0.071,0.045,0.044,0.042,0.066,0.073,0.067,0.043,0.048,0.09
272,0.057,0.062,0.067,0.054,0.037,0.035,0.072,0.068,0.069,0.038,0.049,0.042,0.086,0.072,0.071,0.045,0.044,0.042,0.065,0.072,0.066,0.041,0.045,0.087
273,0.057,0.063,0.068,0.055,0.038,0.036,0.05,0.047,0.049,0.027,0.036,0.031,0.088,0.073,0.073,0.046,0.045,0.043,0.065,0.072,0.066,0.039,0.044,0.085
274,0.058,0.063,0.067,0.053,0.038,0.036,0.036,0.034,0.036,0.02,0.028,0.023,0.089,0.075,0.075,0.047,0.046,0.044,0.066,0.073,0.067,0.039,0.044,0.084
275,0.055,0.06,0.065,0.052,0.036,0.035,0.028,0.026,0.028,0.016,0.023,0.018,0.091,0.076,0.077,0.047,0.047,0.044,0.065,0.072,0.066,0.037,0.042,0.081
276,0.051,0.055,0.061,0.05,0.034,0.032,0.024,0.022,0.024,0.013,0.02,0.016,0.093,0.077,0.078,0.047,0.047,0.045,0.063,0.071,0.064,0.035,0.04,0.078
277,0.048,0.052,0.058,0.049,0.033,0.03,0.021,0.019,0.021,0.012,0.018,0.014,0.096,0.079,0.08,0.049,0.048,0.046,0.062,0.069,0.064,0.034,0.038,0.076
278,0.047,0.052,0.057,0.05,0.032,0.03,0.019,0.017,0.019,0.012,0.017,0.014,0.099,0.082,0.083,0.051,0.05,0.047,0.063,0.071,0.065,0.034,0.037,0.075
279,0.05,0.055,0.06,0.05,0.033,0.031,0.018,0.016,0.018,0.011,0.016,0.012,0.101,0.084,0.085,0.053,0.051,0.048,0.065,0.073,0.067,0.034,0.039,0.076
280,0.052,0.058,0.063,0.05,0.035,0.033,0.016,0.015,0.016,0.01,0.016,0.012,0.102,0.085,0.085,0.052,0.051,0.049,0.067,0.076,0.069,0.036,0.041,0.075
281,0.054,0.061,0.066,0.051,0.037,0.034,0.015,0.014,0.015,0.01,0.015,0.011,0.101,0.085,0.085,0.052,0.051,0.049,0.068,0.076,0.069,0.037,0.041,0.076
282,0.055,0.062,0.067,0.051,0.038,0.035,0.015,0.015,0.016,0.01,0.015,0.011,0.1,0.083,0.084,0.052,0.052,0.048,0.068,0.076,0.07,0.038,0.042,0.078
283,0.053,0.058,0.064,0.051,0.036,0.034,0.015,0.015,0.016,0.01,0.015,0.012,0.098,0.082,0.083,0.052,0.052,0.048,0.066,0.074,0.068,0.037,0.04,0.079
284,0.047,0.051,0.056,0.047,0.032,0.03,0.015,0.014,0.015,0.009,0.014,0.012,0.095,0.08,0.081,0.05,0.05,0.046,0.061,0.069,0.063,0.033,0.036,0.077
285,0.038,0.041,0.047,0.043,0.027,0.025,0.014,0.013,0.014,0.008,0.013,0.011,0.092,0.077,0.077,0.048,0.048,0.045,0.055,0.063,0.056,0.028,0.031,0.07
286,0.032,0.035,0.04,0.04,0.023,0.021,0.013,0.011,0.013,0.008,0.012,0.009,0.089,0.073,0.075,0.046,0.046,0.043,0.051,0.057,0.052,0.025,0.027,0.065
287,0.028,0.031,0.035,0.036,0.02,0.019,0.012,0.01,0.012,0.007,0.011,0.008,0.087,0.072,0.073,0.045,0.044,0.042,0.049,0.055,0.049,0.023,0.025,0.064
288,0.028,0.031,0.036,0.034,0.02,0.02,0.011,0.01,0.012,0.006,0.011,0.008,0.086,0.071,0.071,0.044,0.044,0.041,0.049,0.054,0.049,0.023,0.025,0.065
289,0.033,0.036,0.041,0.036,0.023,0.022,0.01,0.009,0.011,0.006,0.01,0.008,0.083,0.069,0.069,0.043,0.042,0.039,0.05,0.056,0.051,0.024,0.027,0.066
290,0.04,0.042,0.048,0.041,0.027,0.026,0.01,0.009,0.011,0.006,0.011,0.008,0.079,0.067,0.067,0.041,0.041,0.038,0.052,0.058,0.053,0.027,0.03,0.068
291,0.041,0.044,0.05,0.043,0.029,0.027,0.011,0.01,0.012,0.008,0.012,0.009,0.075,0.063,0.063,0.04,0.04,0.037,0.051,0.057,0.051,0.028,0.03,0.068
292,0.033,0.036,0.041,0.039,0.024,0.023,0.01,0.009,0.011,0.007,0.012,0.008,0.068,0.057,0.057,0.036,0.036,0.034,0.044,0.049,0.044,0.024,0.026,0.064
293,0.021,0.023,0.028,0.031,0.017,0.015,0.007,0.007,0.009,0.005,0.01,0.006,0.058,0.049,0.049,0.03,0.031,0.028,0.034,0.038,0.033,0.016,0.018,0.056
294,0.011,0.013,0.018,0.026,0.012,0.009,0.006,0.006,0.007,0.003,0.008,0.005,0.049,0.041,0.04,0.025,0.025,0.023,0.025,0.028,0.024,0.011,0.011,0.049
295,0.007,0.008,0.013,0.025,0.01,0.007,0.006,0.006,0.007,0.003,0.008,0.005,0.04,0.035,0.033,0.021,0.022,0.019,0.019,0.022,0.019,0.009,0.008,0.047
296,0.007,0.008,0.013,0.024,0.01,0.008,0.007,0.007,0.008,0.005,0.009,0.006,0.034,0.031,0.028,0.02,0.019,0.017,0.017,0.019,0.016,0.009,0.008,0.047
297,0.006,0.008,0.012,0.024,0.01,0.009,0.007,0.006,0.009,0.005,0.009,0.006,0.028,0.026,0.023,0.017,0.017,0.014,0.014,0.016,0.013,0.008,0.007,0.045
298,0.005,0.006,0.011,0.023,0.008,0.008,0.006,0.005,0.007,0.004,0.008,0.005,0.022,0.02,0.017,0.013,0.013,0.011,0.011,0.012,0.01,0.006,0.006,0.043
299,0.004,0.005,0.01,0.022,0.008,0.007,0.005,0.005,0.007,0.003,0.007,0.005,0.018,0.016,0.013,0.011,0.011,0.009,0.009,0.009,0.007,0.005,0.005,0.043
300,0.004,0.004,0.009,0.021,0.006,0.006,0.004,0.003,0.006,0.002,0.006,0.003,0.014,0.013,0.01,0.008,0.009,0.007,0.007,0.008,0.006,0.004,0.005,0.043
301,0.003,0.004,0.009,0.019,0.006,0.005,0.004,0.003,0.006,0.003,0.006,0.004,0.011,0.01,0.008,0.007,0.008,0.006,0.006,0.006,0.005,0.004,0.004,0.044
302,0.004,0.005,0.009,0.02,0.007,0.006,0.005,0.004,0.006,0.004,0.007,0.005,0.01,0.01,0.008,0.007,0.008,0.005,0.007,0.006,0.006,0.005,0.005,0.044
303,0.004,0.004,0.009,0.02,0.007,0.006,0.005,0.004,0.006,0.004,0.007,0.005,0.009,0.008,0.007,0.007,0.008,0.005,0.006,0.006,0.005,0.006,0.005,0.043
304,0.003,0.004,0.008,0.02,0.006,0.005,0.005,0.004,0.006,0.003,0.006,0.004,0.007,0.007,0.006,0.006,0.006,0.005,0.005,0.005,0.004,0.005,0.005,0.04
305,0.002,0.003,0.007,0.02,0.005,0.004,0.004,0.002,0.004,0.002,0.004,0.003,0.005,0.006,0.004,0.004,0.004,0.003,0.004,0.004,0.002,0.003,0.003,0.038
306,0.003,0.003,0.007,0.019,0.004,0.003,0.003,0.001,0.004,0.001,0.004,0.002,0.003,0.005,0.003,0.003,0.004,0.002,0.003,0.003,0.001,0.002,0.002,0.038
307,0.004,0.003,0.008,0.02,0.005,0.005,0.004,0.002,0.005,0.003,0.006,0.003,0.004,0.005,0.004,0.004,0.005,0.003,0.004,0.003,0.001,0.003,0.002,0.04
308,0.004,0.004,0.009,0.021,0.006,0.006,0.005,0.004,0.006,0.004,0.007,0.004,0.005,0.006,0.005,0.005,0.006,0.004,0.006,0.004,0.003,0.005,0.003,0.041
309,0.004,0.003,0.009,0.019,0.006,0.006,0.004,0.004,0.006,0.003,0.006,0.004,0.005,0.005,0.004,0.005,0.006,0.004,0.006,0.004,0.003,0.005,0.003,0.039
310,0.003,0.003,0.008,0.018,0.005,0.004,0.003,0.003,0.004,0.001,0.004,0.003,0.004,0.004,0.003,0.004,0.004,0.002,0.004,0.004,0.002,0.004,0.002,0.037
311,0.002,0.002,0.006,0.016,0.004,0.003,0.002,0.002,0.003,0.0,0.002,0.002,0.003,0.003,0.002,0.003,0.002,0.001,0.003,0.002,0.001,0.003,0.002,0.035
312,0.003,0.002,0.006,0.014,0.005,0.003,0.002,0.001,0.004,0.001,0.003,0.002,0.003,0.004,0.003,0.002,0.003,0.002,0.003,0.002,0.001,0.002,0.002,0.034
313,0.003,0.002,0.007,0.014,0.006,0.004,0.002,0.001,0.005,0.002,0.003,0.002,0.003,0.004,0.003,0.003,0.004,0.002,0.003,0.002,0.002,0.002,0.002,0.033
314,0.003,0.002,0.007,0.014,0.006,0.004,0.002,0.002,0.005,0.002,0.004,0.002,0.004,0.004,0.002,0.003,0.004,0.002,0.003,0.002,0.001,0.002,0.002,0.032
315,0.002,0.002,0.007,0.014,0.005,0.004,0.002,0.001,0.004,0.001,0.004,0.002,0.003,0.003,0.002,0.003,0.003,0.001,0.002,0.001,0.0,0.002,0.001,0.032
316,0.001,0.001,0.006,0.016,0.003,0.003,0.001,0.0,0.003,0.0,0.003,0.002,0.003,0.003,0.001,0.002,0.002,0.0,0.001,0.0,-0.001,0.001,-0.001,0.032
317,0.002,0.002,0.006,0.017,0.004,0.004,0.002,0.002,0.004,0.001,0.004,0.003,0.003,0.003,0.001,0.003,0.003,0.001,0.002,0.002,0.001,0.002,0.0,0.032
318,0.003,0.003,0.007,0.015,0.005,0.005,0.003,0.002,0.004,0.001,0.004,0.003,0.004,0.004,0.002,0.003,0.003,0.002,0.003,0.003,0.002,0.003,0.001,0.031
319,0.003,0.003,0.008,0.015,0.005,0.005,0.003,0.003,0.005,0.001,0.005,0.002,0.004,0.003,0.003,0.003,0.004,0.003,0.004,0.004,0.002,0.003,0.002,0.031
320,0.002,0.001,0.007,0.013,0.004,0.004,0.002,0.002,0.004,0.001,0.004,0.002,0.003,0.003,0.003,0.003,0.004,0.002,0.003,0.003,0.002,0.003,0.002,0.031
321,0.001,0.0,0.005,0.013,0.003,0.002,0.0,0.001,0.003,0.0,0.003,0.001,0.002,0.002,0.002,0.002,0.003,0.001,0.002,0.002,0.0,0.002,0.002,0.03
322,0.002,0.0,0.005,0.012,0.003,0.002,0.001,0.0,0.003,0.0,0.003,0.001,0.002,0.002,0.001,0.002,0.003,0.0,0.002,0.002,0.001,0.002,0.002,0.029
323,0.002,0.001,0.005,0.009,0.004,0.002,0.001,0.0,0.002,0.0,0.003,0.0,0.002,0.003,0.0,0.002,0.002,0.0,0.002,0.001,0.0,0.002,0.001,0.029
324,0.001,0.0,0.004,0.007,0.002,0.002,0.001,-0.001,0.002,-0.001,0.002,0.0,0.001,0.002,0.0,0.001,0.001,0.0,0.001,0.0,0.0,0.001,0.0,0.029
325,0.0,0.0,0.004,0.007,0.002,0.001,0.0,-0.001,0.002,-0.001,0.002,0.0,0.001,0.002,0.001,0.001,0.002,0.0,0.001,0.0,-0.001,0.001,-0.001,0.029
326,0.0,-0.001,0.005,0.01,0.002,0.002,0.0,0.0,0.002,0.0,0.001,0.0,0.001,0.001,0.001,0.001,0.002,-0.001,0.002,0.001,0.0,0.001,-0.002,0.028
327,0.0,0.0,0.006,0.012,0.003,0.002,0.001,0.0,0.003,0.0,0.002,0.001,0.002,0.001,0.0,0.002,0.002,-0.001,0.002,0.001,0.0,0.001,-0.001,0.028
328,0.0,0.0,0.006,0.014,0.003,0.002,0.001,-0.001,0.003,-0.001,0.002,0.001,0.001,0.002,0.0,0.001,0.002,-0.001,0.001,0.001,-0.001,0.001,-0.001,0.03
329,0.0,0.0,0.005,0.013,0.002,0.001,0.0,-0.002,0.002,-0.002,0.0,0.0,0.0,0.001,-0.001,0.0,0.0,-0.001,0.0,0.0,-0.002,0.0,-0.002,0.03
330,-0.001,-0.001,0.004,0.011,0.0,0.0,-0.001,-0.002,0.0,-0.003,-0.001,-0.001,-0.002,0.0,-0.002,-0.001,-0.001,-0.001,-0.001,-0.001,-0.003,-0.002,-0.002,0.028
331,-0.001,-0.002,0.004,0.009,0.0,-0.001,-0.001,-0.001,0.0,-0.003,0.0,-0.001,-0.001,0.0,-0.002,-0.001,-0.001,-0.002,-0.001,-0.001,-0.003,-0.002,-0.002,0.025
332,0.0,-0.002,0.004,0.009,0.001,0.0,0.0,0.0,0.001,-0.002,0.001,0.0,0.0,0.001,-0.001,0.0,0.0,-0.001,0.0,-0.001,-0.002,0.0,-0.001,0.026
333,0.001,-0.001,0.005,0.012,0.002,0.002,0.0,0.001,0.002,-0.001,0.002,0.001,0.002,0.002,0.001,0.001,0.002,0.0,0.001,0.0,-0.001,0.001,0.0,0.028
334,0.002,0.0,0.005,0.012,0.003,0.002,0.001,0.0,0.003,0.0,0.002,0.001,0.002,0.003,0.001,0.002,0.002,0.0,0.002,0.0,-0.001,0.001,0.0,0.028
335,0.0,-0.001,0.003,0.009,0.002,0.001,-0.001,-0.001,0.001,-0.001,0.001,0.0,0.0,0.001,0.0,0.0,0.001,-0.001,0.001,0.0,-0.002,0.0,-0.002,0.026
336,0.0,-0.001,0.003,0.01,0.001,0.001,-0.001,-0.001,0.001,-0.002,0.0,-0.001,-0.001,0.0,-0.001,0.0,-0.001,-0.002,0.0,-0.001,-0.003,0.0,-0.002,0.025
337,-0.001,-0.002,0.003,0.011,0.0,0.0,-0.002,-0.002,0.0,-0.004,-0.001,-0.002,-0.002,-0.001,-0.002,-0.002,-0.002,-0.003,-0.002,-0.003,-0.004,-0.001,-0.003,0.023
338,-0.001,-0.002,0.003,0.01,0.0,0.0,-0.003,-0.002,0.0,-0.004,-0.002,-0.002,-0.002,-0.002,-0.003,-0.003,-0.002,-0.004,-0.002,-0.003,-0.004,-0.002,-0.003,0.023
339,-0.001,-0.002,0.003,0.008,0.001,-0.001,-0.002,-0.002,0.0,-0.004,-0.002,-0.002,-0.003,-0.001,-0.003,-0.002,-0.002,-0.004,-0.002,-0.004,-0.004,-0.003,-0.002,0.022
340,-0.001,-0.002,0.003,0.005,0.0,-0.001,-0.002,-0.003,-0.001,-0.003,-0.002,-0.002,-0.004,-0.002,-0.004,-0.002,-0.002,-0.004,-0.002,-0.003,-0.004,-0.003,-0.003,0.022
341,0.0,-0.002,0.003,0.006,0.0,-0.001,-0.001,-0.003,0.0,-0.002,-0.001,-0.002,-0.003,-0.002,-0.003,-0.002,-0.001,-0.003,-0.002,-0.003,-0.004,-0.002,-0.002,0.021
342,-0.001,-0.002,0.003,0.009,-0.001,-0.001,-0.002,-0.003,0.0,-0.002,-0.001,-0.002,-0.002,-0.002,-0.003,-0.002,-0.001,-0.002,-0.002,-0.002,-0.003,-0.001,-0.002,0.021
343,-0.001,-0.002,0.003,0.01,0.0,0.0,-0.002,-0.002,0.0,-0.001,-0.001,-0.001,-0.001,-0.001,-0.002,-0.001,-0.001,-0.002,-0.001,-0.001,-0.002,0.0,-0.002,0.023
344,-0.001,-0.002,0.004,0.009,0.001,0.001,-0.002,-0.001,0.0,-0.002,0.0,-0.001,-0.001,-0.001,-0.002,-0.001,-0.001,-0.001,0.0,-0.001,-0.002,0.0,-0.002,0.023
345,-0.001,-0.001,0.003,0.007,0.001,0.001,-0.002,-0.001,0.0,-0.001,0.0,-0.001,-0.001,-0.001,-0.002,-0.001,-0.001,-0.001,0.0,-0.001,-0.002,0.0,-0.003,0.023
346,-0.001,-0.002,0.003,0.006,0.001,0.0,-0.002,-0.002,0.0,-0.002,0.0,-0.002,-0.001,0.0,-0.003,-0.001,0.0,-0.002,-0.001,-0.002,-0.003,-0.001,-0.004,0.02
347,-0.002,-0.003,0.003,0.006,0.0,-0.001,-0.003,-0.003,0.0,-0.004,-0.001,-0.002,-0.002,-0.001,-0.004,-0.003,-0.002,-0.003,-0.002,-0.003,-0.004,-0.002,-0.004,0.02
348,-0.001,-0.003,0.003,0.009,0.001,-0.001,-0.002,-0.003,0.0,-0.004,-0.001,-0.002,-0.002,-0.002,-0.003,-0.003,-0.002,-0.003,-0.003,-0.003,-0.004,-0.003,-0.004,0.021
349,0.0,-0.002,0.003,0.011,0.0,0.0,-0.002,-0.003,-0.001,-0.004,-0.001,-0.002,-0.002,-0.002,-0.003,-0.003,-0.002,-0.003,-0.003,-0.003,-0.004,-0.003,-0.004,0.023
350,-0.001,-0.001,0.004,0.011,0.0,0.001,-0.002,-0.001,0.0,-0.002,0.0,-0.002,-0.002,-0.001,-0.002,-0.002,-0.001,-0.002,-0.001,-0.001,-0.002,-0.002,-0.003,0.024
351,-0.001,0.0,0.005,0.009,0.001,0.002,-0.001,0.0,0.001,0.0,0.0,0.0,-0.001,0.0,-0.001,-0.001,0.001,-0.001,0.001,0.0,-0.001,0.0,-0.002,0.023
352,0.0,0.0,0.005,0.006,0.002,0.002,0.0,0.0,0.002,0.0,0.001,0.001,0.0,-0.001,-0.001,0.0,0.002,-0.001,0.001,0.001,-0.001,0.0,-0.001,0.023
353,0.0,0.0,0.004,0.009,0.002,0.001,0.0,-0.001,0.002,0.0,0.001,0.0,-0.001,-0.002,-0.001,0.0,0.001,-0.002,0.0,0.0,-0.002,-0.001,-0.003,0.022
354,0.0,-0.001,0.004,0.01,0.001,0.001,-0.001,-0.002,0.0,-0.002,0.0,0.0,-0.002,-0.002,-0.002,-0.001,0.0,-0.002,-0.001,-0.001,-0.003,-0.002,-0.005,0.023
355,-0.001,-0.002,0.003,0.009,0.001,0.0,-0.002,-0.003,0.0,-0.003,-0.001,-0.002,-0.003,-0.003,-0.003,-0.002,-0.002,-0.003,-0.002,-0.002,-0.004,-0.002,-0.005,0.022
356,0.0,-0.001,0.004,0.007,0.002,0.001,-0.001,-0.001,0.001,-0.002,0.001,-0.001,-0.002,-0.002,-0.002,-0.001,-0.001,-0.002,-0.001,-0.001,-0.003,-0.001,-0.003,0.023
357,0.002,0.001,0.006,0.008,0.004,0.002,0.001,0.001,0.003,0.0,0.002,0.001,-0.001,-0.001,-0.001,0.001,0.001,0.0,0.0,0.0,-0.001,0.001,0.0,0.025
358,0.002,0.002,0.006,0.009,0.004,0.002,0.001,0.001,0.004,0.001,0.003,0.001,0.0,0.0,0.0,0.001,0.002,0.0,0.001,0.001,0.0,0.001,0.0,0.027
359,0.001,0.001,0.006,0.009,0.004,0.003,0.002,0.001,0.004,0.001,0.003,0.002,0.0,0.002,0.0,0.001,0.003,0.001,0.002,0.001,0.0,0.002,0.001,0.026
360,-0.001,0.0,0.004,0.007,0.002,0.001,0.0,-0.001,0.002,-0.001,0.002,0.0,-0.001,0.001,-0.001,0.0,0.001,-0.001,0.0,0.0,-0.001,0.001,-0.001,0.024
361,-0.001,-0.001,0.004,0.008,0.002,0.001,-0.001,-0.001,0.001,-0.001,0.002,0.0,-0.002,0.001,-0.001,0.0,0.0,-0.002,-0.001,0.0,-0.002,0.0,-0.002,0.023
362,-0.002,-0.001,0.004,0.009,0.001,0.0,-0.001,-0.002,0.001,-0.002,0.001,-0.001,-0.003,0.0,-0.002,-0.001,0.0,-0.002,-0.001,-0.001,-0.002,0.0,-0.002,0.025
363,-0.001,-0.002,0.003,0.008,0.001,-0.001,-0.002,-0.003,0.0,-0.002,0.001,-0.001,-0.003,-0.001,-0.002,-0.002,-0.001,-0.003,-0.001,-0.002,-0.003,-0.001,-0.002,0.024
364,-0.001,-0.002,0.003,0.007,0.001,-0.001,-0.002,-0.002,0.0,-0.002,0.0,-0.002,-0.003,-0.002,-0.002,-0.002,-0.001,-0.003,-0.001,-0.002,-0.003,-0.001,-0.002,0.024
365,0.0,-0.002,0.002,0.007,0.0,-0.001,-0.002,-0.002,0.0,-0.002,0.0,-0.002,-0.002,-0.003,-0.003,-0.002,-0.002,-0.003,-0.001,-0.002,-0.003,-0.002,-0.003,0.022
366,0.001,-0.001,0.004,0.007,0.001,0.001,-0.001,-0.001,0.0,-0.002,0.001,-0.001,-0.002,-0.002,-0.003,-0.001,-0.001,-0.002,-0.001,-0.001,-0.003,-0.002,-0.003,0.021
367,0.001,0.0,0.005,0.008,0.002,0.003,-0.001,0.0,0.001,-0.001,0.001,0.0,-0.001,-0.001,-0.003,-0.001,-0.001,-0.001,-0.001,-0.001,-0.003,-0.001,-0.003,0.022
368,0.001,0.0,0.006,0.009,0.003,0.004,0.0,0.0,0.002,-0.001,0.001,0.001,-0.001,-0.001,-0.002,0.0,0.0,0.0,0.0,0.0,-0.002,0.0,-0.002,0.023
369,0.001,0.001,0.006,0.011,0.003,0.004,0.0,0.001,0.003,0.0,0.002,0.002,0.0,-0.001,0.0,0.0,0.0,0.0,0.001,0.001,-0.001,0.001,-0.002,0.025
370,0.001,0.001,0.005,0.011,0.003,0.003,-0.001,0.001,0.003,0.0,0.002,0.002,0.001,0.0,0.0,0.001,0.001,-0.001,0.001,0.001,-0.001,0.001,-0.001,0.026
371,0.003,0.001,0.006,0.013,0.003,0.003,0.001,0.002,0.004,0.001,0.002,0.003,0.001,0.001,0.001,0.001,0.002,0.0,0.002,0.001,0.0,0.001,-0.001,0.028
372,0.003,0.001,0.006,0.013,0.003,0.003,0.001,0.002,0.005,0.002,0.003,0.003,0.001,0.001,0.001,0.001,0.002,0.001,0.002,0.001,0.001,0.002,0.0,0.028
373,0.003,0.001,0.006,0.011,0.003,0.004,0.002,0.002,0.004,0.002,0.003,0.003,0.001,0.001,0.001,0.001,0.002,0.001,0.002,0.001,0.0,0.002,0.001,0.025
374,0.002,0.001,0.006,0.01,0.003,0.003,0.001,0.001,0.003,0.001,0.002,0.003,0.001,0.0,0.001,0.001,0.002,0.0,0.002,0.001,0.0,0.002,0.0,0.024
375,0.001,0.001,0.006,0.009,0.003,0.002,0.0,0.0,0.002,-0.001,0.002,0.001,0.001,0.0,-0.001,0.0,0.001,-0.001,0.001,0.0,-0.002,0.001,-0.001,0.024
376,0.001,0.001,0.006,0.012,0.003,0.003,0.0,0.001,0.003,0.0,0.002,0.001,0.0,0.0,-0.001,0.0,0.001,0.0,0.001,0.001,-0.002,0.001,-0.001,0.027
377,0.002,0.002,0.007,0.014,0.004,0.003,0.001,0.001,0.004,0.001,0.003,0.002,0.0,0.002,-0.001,0.001,0.002,0.001,0.001,0.001,-0.001,0.001,0.0,0.027
378,0.002,0.002,0.006,0.012,0.005,0.004,0.001,0.001,0.004,0.001,0.003,0.002,0.0,0.002,-0.001,0.001,0.002,0.001,0.0,0.001,-0.001,0.001,0.0,0.023
379,0.002,0.002,0.006,0.009,0.004,0.003,0.001,0.001,0.004,0.001,0.002,0.002,0.0,0.001,-0.001,0.001,0.001,0.001,0.0,0.0,-0.001,0.001,-0.001,0.022
380,0.002,0.002,0.006,0.007,0.004,0.003,0.002,0.001,0.003,0.0,0.002,0.002,0.0,0.0,-0.001,0.001,0.0,0.0,0.0,0.0,-0.001,0.001,-0.001,0.024
381,0.002,0.001,0.006,0.009,0.004,0.003,0.001,0.001,0.004,0.001,0.002,0.002,0.0,-0.001,0.0,0.001,0.0,0.0,0.0,0.001,-0.001,0.001,-0.001,0.026
382,0.002,0.002,0.007,0.01,0.004,0.003,0.002,0.002,0.004,0.001,0.003,0.002,0.001,0.0,0.001,0.001,0.001,0.0,0.001,0.001,-0.001,0.001,0.0,0.026
383,0.002,0.002,0.007,0.01,0.004,0.003,0.001,0.002,0.004,0.001,0.003,0.002,0.001,0.001,0.001,0.002,0.002,0.001,0.002,0.002,0.0,0.001,0.0,0.025
384,0.002,0.002,0.007,0.009,0.005,0.004,0.002,0.002,0.005,0.001,0.003,0.003,0.001,0.002,0.001,0.001,0.002,0.001,0.003,0.002,0.0,0.002,0.0,0.025
385,0.003,0.002,0.008,0.011,0.006,0.005,0.003,0.003,0.006,0.002,0.004,0.004,0.002,0.002,0.001,0.002,0.002,0.002,0.003,0.003,0.001,0.002,-0.001,0.029
386,0.004,0.003,0.008,0.012,0.007,0.006,0.003,0.003,0.006,0.003,0.005,0.004,0.002,0.002,0.002,0.003,0.003,0.002,0.003,0.003,0.001,0.003,0.0,0.031
387,0.003,0.002,0.007,0.01,0.005,0.005,0.002,0.002,0.005,0.002,0.004,0.003,0.001,0.001,0.001,0.002,0.002,0.001,0.003,0.002,0.0,0.003,0.0,0.029
388,0.002,0.001,0.006,0.007,0.004,0.004,0.001,0.001,0.004,0.0,0.003,0.003,0.001,0.001,0.001,0.001,0.002,0.001,0.002,0.002,0.0,0.002,0.001,0.025
389,0.002,0.0,0.006,0.004,0.003,0.004,0.002,0.001,0.003,0.0,0.003,0.003,0.001,0.002,0.001,0.001,0.001,0.001,0.002,0.002,0.001,0.002,0.002,0.022
390,0.003,0.002,0.008,0.007,0.005,0.005,0.003,0.003,0.005,0.002,0.005,0.004,0.002,0.003,0.001,0.002,0.002,0.002,0.003,0.003,0.001,0.003,0.001,0.023
391,0.004,0.003,0.009,0.008,0.006,0.006,0.003,0.003,0.005,0.003,0.005,0.004,0.002,0.003,0.001,0.003,0.002,0.002,0.003,0.003,0.0,0.002,0.001,0.024
392,0.003,0.003,0.008,0.011,0.005,0.005,0.003,0.002,0.005,0.002,0.004,0.003,0.001,0.001,0.0,0.002,0.002,0.002,0.003,0.002,0.0,0.002,0.0,0.025
393,0.003,0.002,0.007,0.012,0.004,0.003,0.002,0.002,0.004,0.001,0.003,0.002,0.0,0.0,-0.001,0.001,0.001,0.0,0.002,0.001,-0.001,0.001,-0.001,0.025
394,0.003,0.001,0.006,0.011,0.003,0.003,0.001,0.001,0.003,0.0,0.002,0.001,0.0,0.0,-0.001,0.0,0.0,-0.001,0.001,0.0,-0.001,0.001,-0.001,0.024
395,0.003,0.001,0.005,0.012,0.003,0.002,0.0,0.0,0.003,0.0,0.001,0.0,-0.001,0.0,-0.001,0.0,0.0,-0.001,0.001,0.0,-0.002,0.001,-0.002,0.023
396,0.004,0.002,0.006,0.012,0.004,0.004,0.001,0.001,0.004,0.001,0.002,0.001,0.001,0.001,0.001,0.001,0.001,0.001,0.001,0.001,0.0,0.002,-0.001,0.024
397,0.005,0.003,0.008,0.016,0.006,0.005,0.003,0.003,0.006,0.003,0.004,0.003,0.002,0.002,0.002,0.002,0.003,0.002,0.003,0.002,0.001,0.004,0.0,0.025
398,0.006,0.005,0.01,0.017,0.007,0.006,0.004,0.005,0.007,0.004,0.006,0.005,0.004,0.003,0.003,0.004,0.004,0.003,0.004,0.003,0.002,0.004,0.001,0.027
399,0.004,0.003,0.009,0.015,0.006,0.006,0.003,0.004,0.006,0.002,0.005,0.005,0.003,0.002,0.001,0.002,0.002,0.001,0.003,0.002,0.001,0.003,0.0,0.025
400,0.004,0.003,0.008,0.013,0.005,0.005,0.003,0.003,0.005,0.001,0.004,0.003,0.002,0.001,0.0,0.002,0.001,0.001,0.002,0.002,0.0,0.002,0.0,0.025
401,0.002,0.002,0.007,0.013,0.004,0.004,0.002,0.001,0.004,0.0,0.002,0.002,0.001,-0.001,-0.001,0.0,0.0,0.0,0.001,0.001,-0.001,0.001,-0.001,0.025
402,0.002,0.001,0.005,0.012,0.003,0.003,0.0,0.0,0.002,-0.001,0.001,0.0,0.0,-0.002,-0.001,0.0,-0.001,-0.001,0.001,0.0,-0.002,0.0,-0.002,0.025
403,0.001,0.001,0.004,0.01,0.002,0.002,0.0,-0.001,0.002,0.0,0.001,0.0,0.0,-0.002,-0.001,0.0,0.0,-0.001,0.001,0.0,-0.002,0.0,-0.002,0.024
404,0.002,0.002,0.005,0.006,0.003,0.003,0.001,0.001,0.003,0.001,0.002,0.002,0.001,0.0,-0.001,0.001,0.001,0.0,0.002,0.001,-0.001,0.002,0.0,0.023
405,0.004,0.004,0.007,0.006,0.005,0.005,0.003,0.002,0.005,0.003,0.003,0.003,0.002,0.002,0.001,0.003,0.003,0.002,0.003,0.003,0.0,0.003,0.002,0.024
406,0.004,0.003,0.008,0.008,0.006,0.005,0.003,0.002,0.005,0.002,0.003,0.003,0.002,0.002,0.001,0.002,0.003,0.001,0.003,0.003,0.0,0.003,0.002,0.025
407,0.004,0.003,0.007,0.007,0.005,0.005,0.003,0.002,0.005,0.002,0.004,0.003,0.002,0.002,0.001,0.002,0.003,0.001,0.003,0.003,0.001,0.003,0.002,0.024
408,0.004,0.003,0.006,0.006,0.005,0.005,0.003,0.002,0.005,0.002,0.004,0.004,0.002,0.002,0.002,0.001,0.002,0.001,0.003,0.003,0.001,0.003,0.002,0.023
409,0.005,0.004,0.008,0.006,0.005,0.006,0.004,0.004,0.006,0.003,0.005,0.005,0.004,0.003,0.003,0.002,0.003,0.003,0.004,0.004,0.003,0.004,0.005,0.022
410,0.005,0.003,0.008,0.005,0.005,0.005,0.003,0.003,0.005,0.003,0.004,0.004,0.002,0.003,0.002,0.001,0.003,0.002,0.004,0.002,0.001,0.003,0.004,0.022
411,0.004,0.002,0.008,0.005,0.005,0.004,0.002,0.002,0.005,0.001,0.003,0.003,0.002,0.002,0.001,0.0,0.002,0.002,0.003,0.001,0.0,0.003,0.003,0.022
412,0.004,0.002,0.008,0.004,0.005,0.004,0.002,0.002,0.005,0.001,0.003,0.003,0.001,0.002,0.0,0.001,0.002,0.002,0.003,0.002,0.0,0.003,0.002,0.023
413,0.003,0.002,0.007,0.004,0.005,0.005,0.002,0.002,0.005,0.001,0.003,0.003,0.001,0.002,0.001,0.002,0.002,0.002,0.003,0.002,0.0,0.003,0.002,0.023
414,0.004,0.003,0.008,0.006,0.006,0.006,0.004,0.003,0.006,0.003,0.005,0.005,0.003,0.003,0.002,0.003,0.003,0.003,0.004,0.003,0.002,0.004,0.003,0.024
415,0.004,0.003,0.008,0.006,0.006,0.006,0.005,0.003,0.006,0.004,0.005,0.005,0.003,0.003,0.003,0.005,0.004,0.003,0.005,0.004,0.002,0.005,0.004,0.024
416,0.005,0.004,0.009,0.009,0.006,0.006,0.005,0.004,0.007,0.005,0.006,0.006,0.003,0.002,0.004,0.005,0.005,0.003,0.005,0.005,0.002,0.005,0.004,0.024
417,0.006,0.004,0.009,0.011,0.006,0.006,0.004,0.004,0.006,0.004,0.005,0.005,0.003,0.003,0.002,0.004,0.004,0.002,0.004,0.004,0.002,0.004,0.001,0.024
418,0.005,0.003,0.008,0.011,0.005,0.005,0.003,0.003,0.004,0.003,0.004,0.004,0.002,0.003,0.002,0.002,0.002,0.001,0.004,0.003,0.001,0.003,0.0,0.025
419,0.003,0.002,0.007,0.01,0.004,0.004,0.002,0.002,0.003,0.002,0.004,0.003,0.002,0.003,0.001,0.001,0.002,0.001,0.003,0.002,0.0,0.003,-0.001,0.027
420,0.003,0.003,0.007,0.009,0.005,0.004,0.002,0.002,0.004,0.002,0.004,0.003,0.002,0.002,0.002,0.002,0.002,0.001,0.003,0.002,0.0,0.003,0.001,0.027
421,0.004,0.003,0.008,0.009,0.006,0.004,0.003,0.002,0.005,0.002,0.003,0.003,0.002,0.001,0.002,0.002,0.002,0.001,0.002,0.002,0.0,0.002,0.001,0.024
422,0.004,0.003,0.007,0.01,0.005,0.004,0.002,0.002,0.005,0.002,0.003,0.002,0.002,0.001,0.001,0.002,0.001,0.001,0.002,0.002,0.0,0.002,0.0,0.021
423,0.003,0.003,0.007,0.01,0.005,0.003,0.002,0.002,0.005,0.002,0.003,0.002,0.001,0.001,0.001,0.002,0.001,0.001,0.002,0.002,0.0,0.002,0.0,0.021
424,0.001,0.001,0.007,0.008,0.003,0.003,0.002,0.001,0.004,0.001,0.002,0.001,0.001,0.0,0.0,0.001,0.001,0.0,0.001,0.001,-0.001,0.001,-0.001,0.021
425,0.001,0.001,0.005,0.003,0.003,0.003,0.001,0.0,0.003,0.0,0.001,0.001,0.0,0.0,-0.001,0.001,0.0,-0.001,0.0,0.001,-0.002,0.0,0.0,0.02
426,0.001,-0.001,0.004,-0.001,0.002,0.002,-0.001,-0.002,0.001,-0.001,0.0,-0.001,-0.001,-0.002,-0.003,-0.001,-0.001,-0.002,-0.001,-0.001,-0.004,-0.001,-0.001,0.017
427,0.0,-0.002,0.003,0.001,0.0,0.001,-0.003,-0.003,0.0,-0.003,-0.002,-0.002,-0.003,-0.003,-0.004,-0.003,-0.003,-0.004,-0.003,-0.003,-0.005,-0.003,-0.003,0.015
428,0.0,-0.001,0.004,0.004,0.0,0.001,-0.002,-0.002,0.0,-0.002,-0.002,-0.002,-0.003,-0.003,-0.004,-0.003,-0.002,-0.003,-0.002,-0.003,-0.005,-0.002,-0.003,0.015
429,0.001,-0.001,0.004,0.004,0.0,0.001,-0.001,-0.002,0.001,-0.002,0.0,-0.001,-0.002,-0.002,-0.002,-0.002,-0.001,-0.002,-0.001,-0.002,-0.003,-0.001,-0.002,0.016
430,0.002,0.001,0.004,0.005,0.002,0.003,0.001,0.0,0.003,0.0,0.002,0.001,0.001,0.0,0.001,0.0,0.001,0.0,0.002,0.001,-0.001,0.002,0.0,0.02
431,0.003,0.002,0.006,0.006,0.003,0.004,0.002,0.002,0.004,0.001,0.004,0.003,0.002,0.001,0.002,0.001,0.002,0.002,0.003,0.002,0.001,0.004,0.002,0.024
432,0.003,0.002,0.007,0.007,0.005,0.004,0.002,0.002,0.004,0.002,0.004,0.003,0.002,0.001,0.002,0.002,0.002,0.002,0.003,0.002,0.002,0.003,0.003,0.026
433,0.005,0.004,0.007,0.007,0.006,0.005,0.004,0.004,0.006,0.004,0.005,0.004,0.002,0.001,0.002,0.003,0.004,0.003,0.004,0.003,0.003,0.005,0.005,0.025
434,0.005,0.003,0.007,0.007,0.006,0.006,0.004,0.003,0.006,0.004,0.005,0.004,0.003,0.002,0.003,0.003,0.004,0.003,0.004,0.003,0.003,0.004,0.004,0.022
435,0.005,0.004,0.007,0.01,0.006,0.006,0.004,0.004,0.007,0.005,0.005,0.004,0.003,0.003,0.003,0.003,0.004,0.003,0.004,0.004,0.002,0.004,0.003,0.022
436,0.005,0.003,0.008,0.012,0.005,0.006,0.004,0.003,0.006,0.004,0.005,0.004,0.004,0.003,0.003,0.003,0.004,0.003,0.004,0.004,0.002,0.004,0.002,0.02
437,0.005,0.002,0.007,0.008,0.005,0.005,0.003,0.003,0.005,0.004,0.004,0.003,0.003,0.001,0.002,0.002,0.003,0.002,0.003,0.003,0.001,0.003,0.002,0.019
438,0.004,0.002,0.006,0.003,0.004,0.005,0.002,0.002,0.005,0.003,0.003,0.003,0.002,0.0,0.002,0.002,0.002,0.001,0.002,0.002,0.001,0.003,0.002,0.019
439,0.004,0.001,0.005,0.0,0.003,0.003,0.0,0.001,0.003,0.001,0.002,0.001,0.0,-0.001,0.0,0.0,0.0,-0.001,0.0,0.0,0.0,0.001,0.001,0.02
440,0.002,0.001,0.004,0.003,0.002,0.002,0.0,0.0,0.003,0.0,0.001,0.001,-0.001,-0.001,-0.001,-0.001,-0.001,-0.001,0.0,0.0,-0.001,0.0,0.0,0.022
441,0.001,-0.001,0.004,0.004,0.002,0.001,0.0,-0.001,0.002,-0.001,0.001,0.0,-0.001,-0.002,-0.002,-0.001,-0.001,-0.001,-0.001,0.0,-0.002,0.0,-0.001,0.023
442,0.001,-0.001,0.004,0.004,0.001,0.001,-0.001,-0.001,0.002,-0.001,0.001,0.0,-0.002,-0.003,-0.002,-0.001,-0.001,-0.002,-0.001,0.0,-0.002,-0.001,-0.002,0.02
443,0.002,0.0,0.005,0.004,0.002,0.002,0.0,0.001,0.002,0.0,0.002,0.001,-0.001,-0.001,-0.001,0.0,0.0,-0.001,0.0,0.001,-0.002,0.001,-0.002,0.018
444,0.003,0.001,0.005,0.005,0.003,0.003,0.001,0.002,0.004,0.002,0.003,0.002,0.001,0.001,0.0,0.001,0.002,0.0,0.002,0.002,0.0,0.002,-0.001,0.015
445,0.004,0.002,0.006,0.005,0.005,0.005,0.003,0.003,0.005,0.003,0.004,0.003,0.002,0.003,0.002,0.003,0.003,0.002,0.004,0.003,0.002,0.004,0.0,0.016
446,0.003,0.002,0.006,0.002,0.005,0.004,0.003,0.002,0.005,0.003,0.004,0.003,0.003,0.002,0.002,0.003,0.003,0.002,0.004,0.003,0.002,0.004,0.001,0.017
447,0.001,0.001,0.005,0.0,0.002,0.002,0.001,0.0,0.003,0.001,0.002,0.0,0.0,-0.001,-0.001,0.0,0.001,-0.001,0.001,0.001,-0.001,0.002,0.0,0.016
448,0.0,0.0,0.004,0.001,0.001,0.001,0.0,0.0,0.002,0.0,0.001,-0.001,-0.002,-0.002,-0.002,-0.001,-0.001,-0.002,0.0,-0.001,-0.002,0.001,-0.001,0.016
449,0.001,0.0,0.005,0.002,0.002,0.002,0.0,0.0,0.002,0.0,0.001,0.0,-0.001,-0.001,-0.001,-0.001,0.0,-0.001,0.0,-0.001,-0.001,0.001,0.0,0.018
450,0.004,0.002,0.007,0.005,0.004,0.004,0.003,0.002,0.004,0.002,0.003,0.003,0.002,0.002,0.001,0.001,0.001,0.001,0.002,0.001,0.0,0.002,0.002,0.02
451,0.005,0.004,0.009,0.003,0.006,0.006,0.004,0.003,0.006,0.003,0.004,0.004,0.003,0.003,0.002,0.002,0.002,0.002,0.003,0.003,0.001,0.003,0.003,0.019
452,0.005,0.003,0.009,0.001,0.006,0.005,0.003,0.003,0.005,0.003,0.003,0.004,0.002,0.002,0.002,0.001,0.002,0.001,0.003,0.002,0.0,0.002,0.002,0.016
453,0.004,0.002,0.008,0.001,0.004,0.005,0.002,0.002,0.004,0.002,0.002,0.003,0.001,-0.001,0.001,0.001,0.001,0.0,0.002,0.001,0.0,0.002,0.0,0.014
454,0.003,0.001,0.006,0.001,0.003,0.003,0.0,0.0,0.003,0.001,0.001,0.001,0.0,-0.002,0.0,-0.001,0.0,-0.001,0.0,0.0,-0.001,0.001,-0.002,0.013
455,0.002,0.0,0.005,0.001,0.002,0.003,0.0,-0.001,0.002,0.0,0.001,0.0,0.0,-0.002,-0.001,-0.001,-0.001,-0.002,0.0,-0.001,-0.001,0.0,-0.003,0.013
456,0.0,-0.001,0.004,-0.003,0.001,0.001,-0.002,-0.002,0.001,-0.001,0.0,-0.001,-0.002,-0.002,-0.002,-0.002,-0.002,-0.003,-0.002,-0.002,-0.002,-0.001,-0.002,0.012
457,-0.001,-0.001,0.003,-0.006,0.001,0.001,-0.002,-0.002,0.002,-0.001,-0.001,-0.001,-0.002,0.0,-0.002,-0.002,-0.001,-0.002,-0.001,-0.001,-0.002,0.0,0.0,0.012
458,-0.001,-0.001,0.004,-0.003,0.001,0.001,-0.002,-0.002,0.001,-0.001,-0.001,0.001,-0.001,0.0,-0.001,-0.001,-0.001,-0.001,-0.001,0.0,-0.003,0.0,0.002,0.015
459,0.0,-0.001,0.005,-0.001,0.002,0.002,-0.001,-0.001,0.002,-0.001,0.0,0.001,-0.001,0.001,0.0,0.0,-0.001,-0.001,-0.001,0.0,-0.003,0.0,0.002,0.017
460,0.0,-0.001,0.005,0.002,0.001,0.002,-0.001,-0.001,0.001,-0.001,0.0,0.0,-0.001,0.001,-0.001,-0.001,-0.001,-0.002,-0.002,-0.001,-0.003,-0.001,0.0,0.016
461,0.0,-0.001,0.004,0.001,0.0,0.0,-0.001,-0.002,0.001,-0.002,-0.001,-0.001,-0.002,-0.002,-0.002,-0.003,-0.002,-0.003,-0.003,-0.002,-0.004,-0.002,-0.003,0.013
462,0.0,-0.001,0.003,-0.003,0.001,0.001,-0.001,-0.002,0.001,-0.001,-0.001,-0.001,-0.002,-0.003,-0.002,-0.002,-0.001,-0.003,-0.002,-0.002,-0.003,-0.001,-0.004,0.011
463,0.0,0.0,0.004,-0.007,0.002,0.002,-0.001,-0.001,0.002,-0.001,0.0,-0.001,-0.001,-0.002,-0.002,-0.002,-0.001,-0.002,-0.001,-0.001,-0.002,0.0,-0.002,0.01
464,0.001,0.0,0.004,-0.008,0.002,0.002,-0.001,-0.001,0.002,-0.001,0.0,0.0,0.0,-0.001,-0.002,-0.002,-0.002,-0.002,-0.001,-0.002,-0.003,-0.001,-0.001,0.008
465,0.0,-0.001,0.004,-0.003,0.002,0.002,-0.001,-0.002,0.001,-0.001,0.0,0.0,-0.001,-0.001,-0.002,-0.002,-0.002,-0.003,-0.001,-0.002,-0.004,-0.001,-0.002,0.008
466,0.001,-0.001,0.005,0.0,0.001,0.002,-0.001,-0.001,0.001,-0.001,0.001,0.0,-0.002,-0.002,-0.002,-0.002,-0.002,-0.002,0.0,-0.002,-0.003,-0.001,-0.002,0.012
467,0.001,0.0,0.005,0.003,0.002,0.002,0.0,0.0,0.002,0.0,0.002,0.0,-0.001,-0.001,-0.001,-0.001,-0.001,-0.001,0.001,-0.001,-0.002,0.0,-0.003,0.017
468,0.0,0.0,0.004,0.006,0.002,0.002,0.0,0.0,0.003,0.001,0.002,0.001,-0.001,0.001,-0.001,-0.001,0.0,-0.001,0.001,0.0,-0.001,0.0,-0.003,0.02
469,0.0,-0.001,0.004,0.007,0.002,0.001,0.0,0.0,0.002,0.0,0.002,0.0,0.0,0.001,-0.001,-0.001,-0.001,-0.001,0.001,0.0,-0.001,0.0,-0.001,0.018
470,0.0,-0.001,0.004,0.007,0.002,0.001,0.0,-0.001,0.002,0.0,0.002,0.001,0.0,0.002,-0.001,0.0,0.0,-0.001,0.0,0.001,-0.001,0.001,0.0,0.013
471,0.002,0.0,0.004,0.005,0.003,0.002,0.0,0.0,0.003,0.001,0.002,0.002,0.0,0.002,0.0,0.001,0.001,0.0,0.001,0.001,-0.001,0.002,0.002,0.012
472,0.004,0.002,0.007,0.005,0.005,0.004,0.002,0.002,0.005,0.003,0.003,0.003,0.002,0.002,0.002,0.003,0.002,0.002,0.003,0.003,0.001,0.004,0.001,0.012
473,0.004,0.003,0.008,0.008,0.006,0.006,0.003,0.002,0.005,0.003,0.003,0.004,0.002,0.001,0.002,0.003,0.003,0.003,0.003,0.003,0.0,0.003,-0.001,0.014
474,0.003,0.002,0.007,0.009,0.005,0.004,0.002,0.002,0.004,0.001,0.002,0.002,0.001,-0.001,0.0,0.002,0.001,0.001,0.002,0.001,-0.002,0.001,-0.003,0.014
475,0.002,0.001,0.006,0.008,0.003,0.002,0.001,0.001,0.003,-0.001,0.001,0.001,-0.001,-0.003,-0.002,0.0,-0.001,-0.001,0.0,-0.001,-0.004,-0.001,-0.004,0.015
476,0.001,-0.001,0.004,0.006,0.002,0.0,0.0,-0.001,0.001,-0.002,0.0,0.0,-0.002,-0.003,-0.003,-0.001,-0.002,-0.002,-0.001,-0.002,-0.004,-0.001,-0.004,0.014
477,0.0,-0.002,0.004,0.005,0.002,0.001,-0.001,-0.001,0.002,-0.001,0.001,0.001,0.0,-0.001,-0.001,0.0,0.0,-0.001,0.001,0.0,-0.001,0.001,-0.002,0.012
478,0.0,-0.002,0.003,0.006,0.001,0.001,-0.001,-0.001,0.002,0.0,0.001,0.002,0.0,0.0,0.0,0.001,0.0,0.0,0.001,0.001,-0.001,0.002,-0.001,0.011
479,0.0,-0.001,0.003,0.006,0.0,0.002,-0.001,-0.001,0.002,-0.001,0.0,0.001,-0.001,0.0,-0.001,0.0,-0.001,-0.001,0.0,-0.001,-0.002,0.0,-0.002,0.01
480,0.0,-0.002,0.002,0.002,0.0,0.001,-0.002,-0.002,0.001,-0.002,-0.001,-0.001,-0.003,-0.002,-0.003,-0.002,-0.003,-0.003,-0.001,-0.003,-0.005,-0.002,-0.005,0.008
481,-0.001,-0.002,0.002,-0.001,-0.001,0.0,-0.003,-0.003,0.0,-0.004,-0.002,-0.003,-0.004,-0.004,-0.005,-0.003,-0.004,-0.004,-0.002,-0.004,-0.006,-0.003,-0.006,0.005
482,-0.001,-0.002,0.002,-0.001,-0.001,0.0,-0.002,-0.002,0.001,-0.003,-0.001,-0.001,-0.003,-0.002,-0.004,-0.002,-0.002,-0.003,-0.002,-0.002,-0.004,-0.002,-0.004,0.007
483,-0.001,-0.001,0.002,-0.001,0.0,0.0,-0.002,-0.003,0.001,-0.002,-0.001,-0.002,-0.003,-0.003,-0.003,-0.002,-0.002,-0.003,-0.002,-0.002,-0.004,-0.002,-0.002,0.009
484,-0.003,-0.004,0.0,-0.005,-0.003,-0.004,-0.005,-0.005,-0.002,-0.005,-0.004,-0.005,-0.006,-0.004,-0.006,-0.005,-0.005,-0.006,-0.006,-0.005,-0.007,-0.005,-0.005,0.003
485,-0.006,-0.008,-0.003,-0.013,-0.006,-0.007,-0.009,-0.008,-0.005,-0.007,-0.007,-0.008,-0.008,-0.006,-0.008,-0.008,-0.008,-0.009,-0.008,-0.008,-0.01,-0.007,-0.007,-0.005
486,-0.006,-0.007,-0.003,-0.02,-0.006,-0.006,-0.008,-0.007,-0.004,-0.007,-0.006,-0.007,-0.008,-0.006,-0.007,-0.007,-0.007,-0.008,-0.006,-0.007,-0.008,-0.007,-0.006,-0.008
487,-0.004,-0.005,-0.001,-0.018,-0.003,-0.003,-0.006,-0.005,-0.002,-0.005,-0.004,-0.004,-0.006,-0.004,-0.006,-0.005,-0.005,-0.005,-0.004,-0.004,-0.006,-0.004,-0.004,-0.005
488,-0.004,-0.005,0.0,-0.017,-0.003,-0.003,-0.005,-0.005,-0.002,-0.005,-0.004,-0.004,-0.006,-0.006,-0.006,-0.005,-0.005,-0.005,-0.004,-0.004,-0.006,-0.004,-0.003,-0.005
489,-0.005,-0.006,-0.003,-0.017,-0.005,-0.005,-0.007,-0.007,-0.004,-0.007,-0.006,-0.006,-0.008,-0.008,-0.007,-0.007,-0.006,-0.006,-0.006,-0.006,-0.007,-0.005,-0.004,-0.009
490,-0.005,-0.006,-0.002,-0.014,-0.005,-0.005,-0.006,-0.006,-0.004,-0.007,-0.006,-0.005,-0.007,-0.009,-0.007,-0.007,-0.006,-0.007,-0.006,-0.006,-0.008,-0.006,-0.004,-0.01
491,-0.004,-0.006,0.0,-0.009,-0.004,-0.004,-0.005,-0.006,-0.003,-0.006,-0.006,-0.005,-0.007,-0.008,-0.007,-0.007,-0.007,-0.007,-0.007,-0.007,-0.009,-0.007,-0.006,-0.003
492,-0.007,-0.009,-0.003,-0.004,-0.007,-0.007,-0.009,-0.009,-0.006,-0.009,-0.009,-0.008,-0.01,-0.012,-0.01,-0.01,-0.01,-0.011,-0.01,-0.01,-0.012,-0.01,-0.009,0.0
493,-0.01,-0.011,-0.006,-0.004,-0.01,-0.009,-0.011,-0.011,-0.008,-0.011,-0.01,-0.011,-0.013,-0.014,-0.011,-0.012,-0.011,-0.012,-0.011,-0.011,-0.013,-0.011,-0.011,-0.002
494,-0.009,-0.01,-0.006,-0.006,-0.009,-0.009,-0.01,-0.009,-0.007,-0.01,-0.009,-0.01,-0.011,-0.011,-0.01,-0.01,-0.01,-0.011,-0.01,-0.01,-0.012,-0.009,-0.009,-0.003
495,-0.006,-0.007,-0.003,-0.006,-0.006,-0.005,-0.007,-0.006,-0.003,-0.007,-0.006,-0.006,-0.007,-0.006,-0.006,-0.006,-0.007,-0.007,-0.006,-0.006,-0.008,-0.005,-0.004,0.001
496,-0.005,-0.006,-0.001,-0.007,-0.004,-0.004,-0.006,-0.005,-0.002,-0.006,-0.004,-0.005,-0.005,-0.004,-0.006,-0.005,-0.005,-0.005,-0.005,-0.004,-0.007,-0.004,-0.001,0.005
497,-0.004,-0.006,0.0,-0.009,-0.003,-0.004,-0.006,-0.005,-0.003,-0.005,-0.004,-0.005,-0.005,-0.004,-0.006,-0.005,-0.005,-0.006,-0.005,-0.004,-0.006,-0.004,-0.001,0.003
498,-0.003,-0.005,0.0,-0.011,-0.003,-0.003,-0.006,-0.005,-0.002,-0.005,-0.004,-0.005,-0.006,-0.005,-0.005,-0.005,-0.005,-0.006,-0.006,-0.004,-0.006,-0.004,-0.003,0.0
499,-0.004,-0.006,-0.001,-0.012,-0.004,-0.004,-0.006,-0.006,-0.003,-0.006,-0.005,-0.006,-0.007,-0.007,-0.007,-0.007,-0.006,-0.007,-0.007,-0.007,-0.008,-0.006,-0.007,-0.004
500,-0.006,-0.007,-0.003,-0.011,-0.006,-0.006,-0.008,-0.009,-0.006,-0.009,-0.007,-0.008,-0.009,-0.01,-0.009,-0.009,-0.009,-0.01,-0.009,-0.01,-0.01,-0.008,-0.011,-0.008
501,-0.006,-0.007,-0.003,-0.008,-0.006,-0.007,-0.008,-0.008,-0.005,-0.009,-0.006,-0.007,-0.009,-0.01,-0.009,-0.009,-0.009,-0.009,-0.009,-0.009,-0.01,-0.008,-0.011,-0.01
502,-0.006,-0.008,-0.003,-0.007,-0.005,-0.006,-0.007,-0.007,-0.004,-0.008,-0.005,-0.007,-0.008,-0.009,-0.008,-0.008,-0.007,-0.008,-0.008,-0.007,-0.008,-0.005,-0.008,-0.009
503,-0.007,-0.008,-0.004,-0.005,-0.006,-0.006,-0.008,-0.006,-0.005,-0.007,-0.005,-0.006,-0.007,-0.008,-0.007,-0.007,-0.006,-0.007,-0.006,-0.006,-0.007,-0.005,-0.007,-0.006
504,-0.008,-0.01,-0.006,-0.006,-0.008,-0.008,-0.01,-0.009,-0.008,-0.009,-0.008,-0.008,-0.01,-0.009,-0.009,-0.009,-0.008,-0.01,-0.008,-0.008,-0.01,-0.008,-0.01,-0.006
505,-0.01,-0.011,-0.007,-0.008,-0.008,-0.01,-0.011,-0.011,-0.009,-0.01,-0.009,-0.01,-0.012,-0.011,-0.011,-0.011,-0.01,-0.012,-0.01,-0.01,-0.013,-0.01,-0.012,-0.008
506,-0.009,-0.011,-0.006,-0.011,-0.008,-0.01,-0.011,-0.012,-0.008,-0.011,-0.009,-0.01,-0.012,-0.011,-0.011,-0.011,-0.01,-0.012,-0.01,-0.01,-0.013,-0.01,-0.011,-0.01
507,-0.008,-0.01,-0.006,-0.014,-0.007,-0.008,-0.01,-0.01,-0.006,-0.009,-0.007,-0.008,-0.01,-0.009,-0.009,-0.009,-0.008,-0.01,-0.009,-0.008,-0.011,-0.007,-0.009,-0.011
508,-0.008,-0.009,-0.005,-0.014,-0.007,-0.008,-0.009,-0.009,-0.005,-0.009,-0.007,-0.007,-0.009,-0.009,-0.008,-0.008,-0.006,-0.008,-0.008,-0.008,-0.009,-0.006,-0.008,-0.013
509,-0.008,-0.009,-0.006,-0.011,-0.008,-0.009,-0.009,-0.01,-0.007,-0.01,-0.009,-0.009,-0.011,-0.01,-0.01,-0.01,-0.009,-0.01,-0.01,-0.01,-0.011,-0.009,-0.011,-0.015
510,-0.007,-0.008,-0.006,-0.01,-0.009,-0.01,-0.01,-0.011,-0.009,-0.011,-0.01,-0.01,-0.013,-0.012,-0.012,-0.012,-0.011,-0.012,-0.012,-0.011,-0.013,-0.011,-0.014,-0.017
511,-0.007,-0.009,-0.006,-0.01,-0.009,-0.009,-0.01,-0.01,-0.009,-0.011,-0.01,-0.01,-0.013,-0.011,-0.012,-0.013,-0.012,-0.012,-0.011,-0.011,-0.014,-0.011,-0.014,-0.018
512,-0.008,-0.01,-0.006,-0.014,-0.009,-0.009,-0.009,-0.01,-0.008,-0.01,-0.009,-0.008,-0.012,-0.01,-0.01,-0.01,-0.01,-0.011,-0.009,-0.01,-0.011,-0.008,-0.013,-0.017
513,-0.011,-0.012,-0.008,-0.015,-0.01,-0.01,-0.011,-0.011,-0.008,-0.011,-0.01,-0.01,-0.012,-0.011,-0.011,-0.011,-0.01,-0.012,-0.01,-0.011,-0.012,-0.009,-0.014,-0.016
514,-0.013,-0.014,-0.01,-0.018,-0.012,-0.012,-0.014,-0.014,-0.011,-0.014,-0.013,-0.013,-0.014,-0.014,-0.014,-0.014,-0.013,-0.015,-0.013,-0.013,-0.015,-0.012,-0.015,-0.018
515,-0.013,-0.014,-0.011,-0.021,-0.013,-0.013,-0.016,-0.015,-0.013,-0.016,-0.015,-0.015,-0.016,-0.016,-0.016,-0.016,-0.015,-0.016,-0.016,-0.015,-0.017,-0.015,-0.015,-0.022
516,-0.012,-0.013,-0.01,-0.026,-0.013,-0.013,-0.015,-0.015,-0.012,-0.015,-0.014,-0.014,-0.015,-0.016,-0.015,-0.015,-0.014,-0.014,-0.014,-0.014,-0.016,-0.013,-0.013,-0.022
517,-0.011,-0.012,-0.009,-0.024,-0.011,-0.011,-0.013,-0.012,-0.01,-0.011,-0.011,-0.012,-0.013,-0.013,-0.012,-0.012,-0.011,-0.012,-0.011,-0.011,-0.013,-0.01,-0.012,-0.02
518,-0.01,-0.011,-0.007,-0.019,-0.009,-0.009,-0.01,-0.01,-0.008,-0.009,-0.009,-0.01,-0.011,-0.01,-0.011,-0.01,-0.009,-0.01,-0.01,-0.01,-0.011,-0.008,-0.011,-0.017
519,-0.01,-0.012,-0.007,-0.016,-0.009,-0.009,-0.011,-0.01,-0.009,-0.01,-0.01,-0.01,-0.013,-0.011,-0.011,-0.011,-0.01,-0.012,-0.011,-0.011,-0.013,-0.01,-0.012,-0.019
520,-0.011,-0.013,-0.008,-0.017,-0.011,-0.011,-0.013,-0.012,-0.01,-0.012,-0.011,-0.012,-0.015,-0.013,-0.014,-0.013,-0.012,-0.014,-0.013,-0.013,-0.016,-0.012,-0.015,-0.025
521,-0.012,-0.014,-0.009,-0.019,-0.012,-0.012,-0.014,-0.013,-0.011,-0.013,-0.013,-0.013,-0.016,-0.015,-0.015,-0.014,-0.013,-0.015,-0.013,-0.014,-0.017,-0.014,-0.016,-0.028
522,-0.013,-0.015,-0.009,-0.02,-0.014,-0.014,-0.015,-0.015,-0.013,-0.015,-0.014,-0.015,-0.018,-0.016,-0.016,-0.016,-0.016,-0.016,-0.015,-0.016,-0.018,-0.016,-0.018,-0.03
523,-0.013,-0.015,-0.01,-0.017,-0.013,-0.014,-0.014,-0.015,-0.013,-0.015,-0.015,-0.015,-0.017,-0.016,-0.017,-0.017,-0.017,-0.017,-0.015,-0.016,-0.018,-0.017,-0.019,-0.029
524,-0.012,-0.013,-0.008,-0.013,-0.011,-0.013,-0.013,-0.014,-0.011,-0.014,-0.013,-0.014,-0.016,-0.015,-0.016,-0.015,-0.015,-0.015,-0.015,-0.015,-0.017,-0.015,-0.019,-0.025
525,-0.01,-0.012,-0.006,-0.008,-0.008,-0.011,-0.011,-0.011,-0.009,-0.011,-0.011,-0.011,-0.013,-0.013,-0.013,-0.012,-0.012,-0.013,-0.012,-0.011,-0.014,-0.011,-0.016,-0.021
526,-0.009,-0.012,-0.007,-0.01,-0.009,-0.01,-0.011,-0.012,-0.009,-0.011,-0.011,-0.01,-0.013,-0.013,-0.013,-0.012,-0.012,-0.012,-0.011,-0.011,-0.013,-0.01,-0.013,-0.017
527,-0.011,-0.014,-0.009,-0.014,-0.012,-0.013,-0.014,-0.015,-0.012,-0.013,-0.013,-0.013,-0.015,-0.014,-0.014,-0.014,-0.014,-0.014,-0.013,-0.013,-0.015,-0.012,-0.013,-0.017
528,-0.014,-0.016,-0.012,-0.019,-0.014,-0.015,-0.017,-0.017,-0.014,-0.016,-0.015,-0.016,-0.018,-0.015,-0.017,-0.017,-0.017,-0.017,-0.016,-0.017,-0.018,-0.016,-0.017,-0.022
529,-0.016,-0.018,-0.015,-0.023,-0.017,-0.018,-0.02,-0.019,-0.017,-0.019,-0.019,-0.019,-0.022,-0.018,-0.021,-0.02,-0.021,-0.021,-0.02,-0.021,-0.023,-0.02,-0.021,-0.029
530,-0.018,-0.02,-0.017,-0.025,-0.02,-0.02,-0.021,-0.02,-0.019,-0.02,-0.02,-0.021,-0.023,-0.02,-0.022,-0.022,-0.022,-0.022,-0.022,-0.021,-0.024,-0.022,-0.023,-0.035
531,-0.017,-0.02,-0.017,-0.024,-0.019,-0.02,-0.02,-0.02,-0.019,-0.02,-0.02,-0.021,-0.023,-0.021,-0.022,-0.022,-0.021,-0.022,-0.021,-0.02,-0.022,-0.021,-0.022,-0.035
532,-0.013,-0.016,-0.013,-0.018,-0.014,-0.016,-0.016,-0.016,-0.014,-0.016,-0.016,-0.017,-0.018,-0.018,-0.017,-0.017,-0.016,-0.018,-0.017,-0.016,-0.018,-0.017,-0.018,-0.029
533,-0.011,-0.013,-0.01,-0.017,-0.011,-0.013,-0.013,-0.013,-0.011,-0.012,-0.013,-0.013,-0.016,-0.016,-0.014,-0.015,-0.013,-0.015,-0.014,-0.013,-0.015,-0.013,-0.016,-0.027
534,-0.013,-0.014,-0.01,-0.022,-0.012,-0.013,-0.013,-0.013,-0.011,-0.012,-0.012,-0.013,-0.015,-0.015,-0.014,-0.014,-0.012,-0.014,-0.013,-0.013,-0.014,-0.012,-0.016,-0.029
535,-0.015,-0.016,-0.011,-0.023,-0.013,-0.014,-0.016,-0.015,-0.013,-0.015,-0.014,-0.015,-0.017,-0.016,-0.016,-0.016,-0.015,-0.017,-0.015,-0.015,-0.017,-0.015,-0.019,-0.032
536,-0.015,-0.017,-0.012,-0.022,-0.014,-0.015,-0.017,-0.017,-0.014,-0.017,-0.016,-0.017,-0.02,-0.017,-0.019,-0.018,-0.017,-0.019,-0.017,-0.018,-0.019,-0.018,-0.022,-0.034
537,-0.015,-0.017,-0.013,-0.021,-0.016,-0.017,-0.018,-0.018,-0.015,-0.019,-0.017,-0.018,-0.021,-0.019,-0.02,-0.02,-0.02,-0.021,-0.019,-0.02,-0.021,-0.019,-0.025,-0.033
538,-0.015,-0.016,-0.013,-0.02,-0.016,-0.018,-0.018,-0.018,-0.016,-0.019,-0.018,-0.018,-0.021,-0.018,-0.018,-0.02,-0.02,-0.02,-0.019,-0.02,-0.02,-0.018,-0.024,-0.03
539,-0.017,-0.018,-0.014,-0.021,-0.018,-0.018,-0.019,-0.018,-0.016,-0.019,-0.017,-0.017,-0.019,-0.017,-0.017,-0.019,-0.019,-0.018,-0.018,-0.018,-0.019,-0.017,-0.022,-0.029
540,-0.015,-0.017,-0.012,-0.02,-0.015,-0.015,-0.016,-0.015,-0.013,-0.015,-0.015,-0.014,-0.016,-0.014,-0.015,-0.015,-0.015,-0.015,-0.014,-0.015,-0.016,-0.013,-0.018,-0.028
541,-0.015,-0.017,-0.012,-0.022,-0.014,-0.014,-0.015,-0.015,-0.012,-0.014,-0.014,-0.013,-0.016,-0.013,-0.015,-0.014,-0.014,-0.015,-0.013,-0.014,-0.016,-0.013,-0.017,-0.03
542,-0.017,-0.018,-0.013,-0.023,-0.015,-0.016,-0.017,-0.017,-0.015,-0.017,-0.016,-0.016,-0.019,-0.017,-0.018,-0.017,-0.017,-0.019,-0.017,-0.017,-0.02,-0.018,-0.02,-0.033
543,-0.019,-0.02,-0.015,-0.028,-0.018,-0.019,-0.02,-0.02,-0.018,-0.021,-0.02,-0.02,-0.023,-0.021,-0.022,-0.021,-0.021,-0.022,-0.021,-0.021,-0.023,-0.021,-0.025,-0.035
544,-0.02,-0.02,-0.016,-0.032,-0.02,-0.021,-0.021,-0.021,-0.019,-0.023,-0.022,-0.022,-0.025,-0.024,-0.024,-0.023,-0.024,-0.024,-0.024,-0.024,-0.025,-0.024,-0.027,-0.037
545,-0.018,-0.019,-0.016,-0.029,-0.019,-0.021,-0.02,-0.021,-0.018,-0.022,-0.022,-0.023,-0.025,-0.025,-0.024,-0.024,-0.023,-0.024,-0.024,-0.024,-0.025,-0.023,-0.026,-0.036
546,-0.018,-0.019,-0.016,-0.027,-0.018,-0.021,-0.02,-0.022,-0.019,-0.022,-0.022,-0.022,-0.025,-0.025,-0.023,-0.024,-0.023,-0.024,-0.024,-0.023,-0.024,-0.022,-0.025,-0.038
547,-0.017,-0.02,-0.016,-0.023,-0.018,-0.02,-0.021,-0.022,-0.019,-0.022,-0.022,-0.021,-0.024,-0.023,-0.023,-0.023,-0.023,-0.024,-0.023,-0.023,-0.024,-0.022,-0.025,-0.039
548,-0.019,-0.021,-0.018,-0.025,-0.019,-0.021,-0.023,-0.023,-0.019,-0.023,-0.022,-0.021,-0.024,-0.023,-0.023,-0.023,-0.023,-0.024,-0.024,-0.023,-0.024,-0.022,-0.026,-0.038
549,-0.02,-0.021,-0.018,-0.028,-0.02,-0.021,-0.023,-0.022,-0.02,-0.022,-0.022,-0.021,-0.024,-0.024,-0.023,-0.023,-0.022,-0.024,-0.024,-0.024,-0.024,-0.022,-0.027,-0.038
550,-0.02,-0.021,-0.018,-0.032,-0.02,-0.022,-0.023,-0.023,-0.02,-0.022,-0.022,-0.022,-0.024,-0.025,-0.023,-0.023,-0.023,-0.024,-0.023,-0.024,-0.025,-0.022,-0.026,-0.038
551,-0.018,-0.02,-0.016,-0.033,-0.019,-0.02,-0.021,-0.021,-0.018,-0.021,-0.02,-0.02,-0.023,-0.023,-0.022,-0.022,-0.021,-0.022,-0.022,-0.022,-0.024,-0.02,-0.025,-0.036
552,-0.017,-0.019,-0.014,-0.028,-0.017,-0.019,-0.02,-0.019,-0.018,-0.02,-0.019,-0.018,-0.022,-0.021,-0.022,-0.021,-0.02,-0.021,-0.021,-0.021,-0.023,-0.02,-0.024,-0.032
553,-0.018,-0.02,-0.015,-0.027,-0.018,-0.02,-0.02,-0.019,-0.019,-0.02,-0.019,-0.018,-0.022,-0.021,-0.021,-0.02,-0.02,-0.021,-0.021,-0.021,-0.022,-0.02,-0.023,-0.033
554,-0.019,-0.02,-0.016,-0.026,-0.017,-0.019,-0.019,-0.019,-0.018,-0.019,-0.017,-0.018,-0.021,-0.019,-0.019,-0.019,-0.019,-0.02,-0.019,-0.02,-0.02,-0.019,-0.022,-0.034
555,-0.018,-0.018,-0.015,-0.024,-0.016,-0.017,-0.017,-0.018,-0.016,-0.018,-0.016,-0.017,-0.019,-0.018,-0.018,-0.017,-0.017,-0.018,-0.018,-0.018,-0.019,-0.017,-0.02,-0.035
556,-0.017,-0.017,-0.013,-0.023,-0.014,-0.015,-0.017,-0.018,-0.015,-0.017,-0.016,-0.017,-0.019,-0.018,-0.017,-0.017,-0.017,-0.017,-0.017,-0.017,-0.019,-0.016,-0.02,-0.033
557,-0.014,-0.016,-0.012,-0.025,-0.014,-0.015,-0.017,-0.018,-0.015,-0.017,-0.017,-0.018,-0.02,-0.017,-0.018,-0.017,-0.018,-0.017,-0.018,-0.018,-0.019,-0.017,-0.021,-0.035
558,-0.017,-0.019,-0.013,-0.027,-0.017,-0.018,-0.02,-0.02,-0.017,-0.019,-0.02,-0.02,-0.023,-0.019,-0.02,-0.019,-0.02,-0.02,-0.021,-0.02,-0.021,-0.02,-0.022,-0.038
559,-0.019,-0.021,-0.015,-0.025,-0.019,-0.02,-0.02,-0.022,-0.017,-0.02,-0.02,-0.021,-0.023,-0.02,-0.02,-0.02,-0.02,-0.021,-0.021,-0.021,-0.021,-0.02,-0.023,-0.036
560,-0.02,-0.021,-0.015,-0.02,-0.018,-0.019,-0.02,-0.021,-0.016,-0.019,-0.02,-0.019,-0.022,-0.019,-0.019,-0.019,-0.019,-0.02,-0.019,-0.02,-0.019,-0.019,-0.022,-0.033
561,-0.018,-0.018,-0.015,-0.02,-0.016,-0.017,-0.018,-0.019,-0.015,-0.017,-0.018,-0.018,-0.019,-0.018,-0.018,-0.018,-0.017,-0.019,-0.018,-0.018,-0.019,-0.017,-0.021,-0.031
562,-0.016,-0.016,-0.013,-0.022,-0.014,-0.015,-0.016,-0.016,-0.013,-0.016,-0.016,-0.016,-0.018,-0.015,-0.016,-0.017,-0.016,-0.017,-0.016,-0.016,-0.017,-0.015,-0.019,-0.033
563,-0.016,-0.017,-0.013,-0.027,-0.015,-0.016,-0.016,-0.017,-0.013,-0.016,-0.016,-0.016,-0.017,-0.016,-0.016,-0.017,-0.016,-0.017,-0.017,-0.016,-0.017,-0.015,-0.019,-0.035
564,-0.017,-0.018,-0.014,-0.029,-0.016,-0.017,-0.017,-0.017,-0.013,-0.016,-0.016,-0.016,-0.019,-0.017,-0.017,-0.017,-0.016,-0.017,-0.017,-0.017,-0.018,-0.015,-0.019,-0.036
565,-0.018,-0.019,-0.015,-0.029,-0.016,-0.018,-0.018,-0.018,-0.015,-0.017,-0.016,-0.016,-0.02,-0.017,-0.017,-0.018,-0.017,-0.018,-0.018,-0.018,-0.019,-0.016,-0.019,-0.035
566,-0.019,-0.02,-0.016,-0.028,-0.018,-0.019,-0.019,-0.018,-0.016,-0.018,-0.017,-0.018,-0.021,-0.019,-0.019,-0.019,-0.019,-0.02,-0.019,-0.018,-0.021,-0.017,-0.02,-0.034
567,-0.018,-0.02,-0.016,-0.026,-0.018,-0.019,-0.02,-0.018,-0.016,-0.019,-0.018,-0.018,-0.021,-0.021,-0.02,-0.02,-0.02,-0.02,-0.02,-0.018,-0.021,-0.018,-0.021,-0.033
568,-0.02,-0.021,-0.017,-0.027,-0.02,-0.021,-0.022,-0.022,-0.018,-0.021,-0.02,-0.022,-0.023,-0.024,-0.023,-0.023,-0.021,-0.023,-0.023,-0.021,-0.025,-0.021,-0.025,-0.036
569,-0.021,-0.021,-0.017,-0.027,-0.02,-0.021,-0.022,-0.023,-0.019,-0.022,-0.021,-0.022,-0.024,-0.024,-0.023,-0.022,-0.022,-0.024,-0.023,-0.022,-0.025,-0.022,-0.026,-0.035
570,-0.021,-0.022,-0.016,-0.03,-0.019,-0.019,-0.021,-0.024,-0.02,-0.023,-0.021,-0.021,-0.023,-0.022,-0.022,-0.022,-0.022,-0.023,-0.022,-0.022,-0.024,-0.021,-0.025,-0.032
571,-0.017,-0.019,-0.012,-0.028,-0.015,-0.015,-0.018,-0.02,-0.016,-0.019,-0.019,-0.018,-0.019,-0.019,-0.019,-0.019,-0.019,-0.019,-0.019,-0.019,-0.021,-0.018,-0.022,-0.028
572,-0.015,-0.016,-0.011,-0.026,-0.013,-0.013,-0.016,-0.016,-0.014,-0.017,-0.016,-0.015,-0.017,-0.018,-0.017,-0.017,-0.017,-0.017,-0.016,-0.017,-0.02,-0.016,-0.02,-0.029
573,-0.016,-0.015,-0.012,-0.028,-0.012,-0.014,-0.016,-0.016,-0.013,-0.015,-0.015,-0.015,-0.017,-0.019,-0.017,-0.017,-0.016,-0.017,-0.016,-0.017,-0.018,-0.016,-0.02,-0.031
574,-0.018,-0.016,-0.012,-0.027,-0.014,-0.016,-0.016,-0.016,-0.014,-0.016,-0.014,-0.015,-0.018,-0.018,-0.018,-0.017,-0.016,-0.017,-0.017,-0.017,-0.018,-0.016,-0.02,-0.03
575,-0.017,-0.017,-0.013,-0.025,-0.016,-0.017,-0.016,-0.017,-0.015,-0.016,-0.016,-0.016,-0.019,-0.017,-0.019,-0.018,-0.017,-0.018,-0.018,-0.017,-0.018,-0.016,-0.022,-0.027
576,-0.013,-0.014,-0.011,-0.02,-0.014,-0.015,-0.014,-0.016,-0.014,-0.014,-0.014,-0.014,-0.017,-0.016,-0.016,-0.016,-0.015,-0.016,-0.015,-0.015,-0.016,-0.014,-0.02,-0.026
577,-0.013,-0.014,-0.011,-0.018,-0.014,-0.015,-0.015,-0.016,-0.013,-0.014,-0.015,-0.015,-0.017,-0.017,-0.016,-0.015,-0.015,-0.017,-0.015,-0.016,-0.016,-0.013,-0.02,-0.029
578,-0.013,-0.015,-0.012,-0.02,-0.015,-0.015,-0.016,-0.017,-0.014,-0.016,-0.016,-0.016,-0.018,-0.017,-0.018,-0.017,-0.016,-0.018,-0.017,-0.017,-0.017,-0.015,-0.019,-0.033
579,-0.015,-0.016,-0.014,-0.024,-0.016,-0.016,-0.016,-0.017,-0.014,-0.016,-0.017,-0.016,-0.019,-0.017,-0.018,-0.017,-0.017,-0.018,-0.018,-0.017,-0.018,-0.015,-0.018,-0.032
580,-0.013,-0.014,-0.011,-0.022,-0.013,-0.014,-0.015,-0.015,-0.012,-0.014,-0.013,-0.014,-0.017,-0.015,-0.016,-0.015,-0.015,-0.016,-0.015,-0.015,-0.016,-0.013,-0.016,-0.028
581,-0.014,-0.015,-0.01,-0.021,-0.013,-0.014,-0.014,-0.015,-0.013,-0.013,-0.012,-0.015,-0.017,-0.015,-0.014,-0.014,-0.015,-0.015,-0.014,-0.014,-0.015,-0.014,-0.016,-0.027
582,-0.015,-0.016,-0.011,-0.022,-0.014,-0.015,-0.016,-0.017,-0.013,-0.014,-0.015,-0.015,-0.017,-0.016,-0.015,-0.014,-0.015,-0.016,-0.015,-0.015,-0.016,-0.014,-0.017,-0.026
583,-0.015,-0.018,-0.012,-0.03,-0.014,-0.016,-0.017,-0.018,-0.013,-0.017,-0.017,-0.016,-0.019,-0.016,-0.017,-0.016,-0.017,-0.017,-0.017,-0.017,-0.018,-0.016,-0.017,-0.026
584,-0.013,-0.017,-0.011,-0.032,-0.013,-0.014,-0.016,-0.017,-0.014,-0.016,-0.016,-0.017,-0.018,-0.017,-0.017,-0.016,-0.016,-0.017,-0.016,-0.017,-0.018,-0.015,-0.017,-0.026
585,-0.009,-0.013,-0.007,-0.032,-0.01,-0.01,-0.012,-0.013,-0.01,-0.013,-0.012,-0.013,-0.015,-0.014,-0.013,-0.015,-0.014,-0.014,-0.012,-0.013,-0.015,-0.012,-0.014,-0.028
586,-0.008,-0.01,-0.006,-0.026,-0.009,-0.008,-0.01,-0.01,-0.008,-0.01,-0.008,-0.011,-0.013,-0.012,-0.011,-0.013,-0.011,-0.013,-0.011,-0.011,-0.013,-0.011,-0.014,-0.026
587,-0.007,-0.009,-0.004,-0.022,-0.008,-0.008,-0.01,-0.009,-0.006,-0.009,-0.007,-0.009,-0.011,-0.011,-0.01,-0.011,-0.01,-0.011,-0.01,-0.01,-0.011,-0.01,-0.015,-0.022
588,-0.009,-0.011,-0.006,-0.02,-0.008,-0.01,-0.011,-0.011,-0.009,-0.011,-0.01,-0.011,-0.013,-0.012,-0.012,-0.011,-0.01,-0.012,-0.012,-0.012,-0.013,-0.011,-0.015,-0.021
589,-0.011,-0.013,-0.008,-0.02,-0.009,-0.012,-0.012,-0.014,-0.011,-0.013,-0.012,-0.013,-0.014,-0.013,-0.013,-0.012,-0.012,-0.013,-0.012,-0.013,-0.014,-0.012,-0.013,-0.021
590,-0.01,-0.013,-0.009,-0.02,-0.01,-0.011,-0.012,-0.013,-0.01,-0.012,-0.011,-0.012,-0.013,-0.012,-0.012,-0.012,-0.012,-0.013,-0.011,-0.013,-0.013,-0.011,-0.012,-0.021
591,-0.011,-0.013,-0.009,-0.021,-0.011,-0.011,-0.013,-0.012,-0.01,-0.012,-0.011,-0.012,-0.014,-0.012,-0.012,-0.012,-0.012,-0.013,-0.011,-0.012,-0.013,-0.011,-0.012,-0.022
592,-0.011,-0.013,-0.008,-0.019,-0.012,-0.011,-0.013,-0.012,-0.01,-0.012,-0.012,-0.011,-0.014,-0.012,-0.012,-0.013,-0.012,-0.013,-0.012,-0.012,-0.012,-0.011,-0.015,-0.024
593,-0.011,-0.014,-0.009,-0.013,-0.011,-0.012,-0.014,-0.013,-0.011,-0.013,-0.013,-0.012,-0.014,-0.014,-0.015,-0.015,-0.013,-0.014,-0.014,-0.012,-0.014,-0.013,-0.017,-0.023
594,-0.01,-0.012,-0.008,-0.003,-0.009,-0.01,-0.012,-0.013,-0.01,-0.012,-0.011,-0.011,-0.012,-0.012,-0.014,-0.014,-0.012,-0.014,-0.013,-0.012,-0.014,-0.012,-0.015,-0.016
595,-0.006,-0.008,-0.004,-0.003,-0.004,-0.006,-0.008,-0.009,-0.006,-0.008,-0.008,-0.008,-0.009,-0.007,-0.01,-0.01,-0.009,-0.012,-0.009,-0.01,-0.011,-0.009,-0.012,-0.013
596,-0.004,-0.004,-0.001,-0.011,-0.001,-0.002,-0.004,-0.005,-0.002,-0.005,-0.005,-0.005,-0.007,-0.005,-0.007,-0.007,-0.007,-0.009,-0.007,-0.007,-0.009,-0.007,-0.009,-0.013
597,-0.003,-0.004,0.0,-0.018,-0.001,-0.002,-0.004,-0.004,-0.001,-0.004,-0.004,-0.004,-0.006,-0.007,-0.007,-0.007,-0.006,-0.008,-0.007,-0.007,-0.009,-0.007,-0.009,-0.014
598,-0.006,-0.007,-0.003,-0.017,-0.004,-0.004,-0.007,-0.007,-0.003,-0.006,-0.006,-0.007,-0.008,-0.011,-0.008,-0.009,-0.009,-0.009,-0.007,-0.009,-0.011,-0.008,-0.011,-0.009
599,-0.007,-0.01,-0.005,-0.012,-0.006,-0.005,-0.008,-0.01,-0.006,-0.008,-0.008,-0.009,-0.01,-0.012,-0.01,-0.011,-0.01,-0.009,-0.009,-0.01,-0.012,-0.009,-0.013,-0.005
600,-0.01,-0.012,-0.007,-0.011,-0.009,-0.008,-0.011,-0.012,-0.009,-0.011,-0.011,-0.012,-0.013,-0.014,-0.013,-0.013,-0.013,-0.012,-0.013,-0.013,-0.015,-0.013,-0.015,-0.009
601,-0.01,-0.011,-0.005,-0.01,-0.008,-0.009,-0.011,-0.012,-0.009,-0.013,-0.011,-0.012,-0.013,-0.013,-0.014,-0.013,-0.014,-0.014,-0.014,-0.014,-0.017,-0.015,-0.017,-0.012
602,-0.009,-0.01,-0.003,-0.008,-0.007,-0.008,-0.009,-0.01,-0.008,-0.012,-0.01,-0.011,-0.012,-0.011,-0.014,-0.013,-0.013,-0.014,-0.013,-0.014,-0.016,-0.014,-0.015,-0.01
603,-0.006,-0.009,-0.003,-0.009,-0.005,-0.006,-0.007,-0.008,-0.005,-0.008,-0.008,-0.007,-0.009,-0.009,-0.011,-0.01,-0.009,-0.012,-0.01,-0.011,-0.013,-0.01,-0.013,-0.006
604,-0.004,-0.006,-0.002,-0.012,-0.004,-0.003,-0.005,-0.006,-0.003,-0.005,-0.006,-0.005,-0.006,-0.006,-0.007,-0.007,-0.006,-0.008,-0.006,-0.007,-0.009,-0.005,-0.009,-0.002
605,-0.001,-0.003,0.001,-0.015,-0.002,-0.001,-0.002,-0.004,0.0,-0.003,-0.003,-0.003,-0.003,-0.003,-0.004,-0.004,-0.003,-0.005,-0.003,-0.003,-0.006,-0.002,-0.006,-0.007
606,0.001,-0.001,0.003,-0.017,-0.001,0.001,-0.001,-0.003,0.001,-0.003,-0.001,-0.003,-0.003,-0.003,-0.003,-0.003,-0.002,-0.004,-0.003,-0.002,-0.005,-0.002,-0.005,-0.009
607,0.002,0.001,0.005,-0.015,0.002,0.003,0.0,-0.001,0.001,-0.002,0.0,-0.002,-0.002,-0.003,-0.003,-0.002,-0.002,-0.003,-0.002,-0.002,-0.005,-0.002,-0.005,-0.004
608,0.002,0.002,0.006,-0.012,0.003,0.004,0.0,-0.001,0.002,-0.001,0.0,-0.001,-0.002,-0.002,-0.003,-0.002,-0.003,-0.002,-0.001,-0.002,-0.004,-0.002,-0.004,0.0
609,0.001,0.001,0.006,-0.006,0.004,0.003,0.001,-0.001,0.003,0.0,0.002,0.0,0.0,-0.001,-0.003,-0.001,-0.002,-0.001,0.0,-0.001,-0.003,-0.001,-0.002,0.0
610,0.001,0.0,0.006,-0.004,0.003,0.003,0.001,-0.001,0.003,0.001,0.001,0.0,-0.001,-0.003,-0.003,-0.001,-0.002,-0.002,-0.001,-0.001,-0.003,-0.002,-0.003,-0.006
611,0.0,-0.002,0.004,-0.01,0.001,0.0,-0.001,-0.002,0.0,-0.001,-0.001,-0.002,-0.004,-0.006,-0.005,-0.003,-0.004,-0.005,-0.004,-0.003,-0.007,-0.004,-0.005,-0.008
612,0.001,0.0,0.005,-0.014,0.001,0.001,-0.001,-0.003,-0.001,-0.001,-0.001,-0.002,-0.003,-0.005,-0.004,-0.003,-0.004,-0.004,-0.002,-0.003,-0.006,-0.003,-0.004,-0.004
613,0.0,-0.001,0.002,-0.012,-0.001,0.0,-0.002,-0.004,-0.002,-0.003,-0.002,-0.003,-0.004,-0.004,-0.004,-0.004,-0.004,-0.005,-0.004,-0.004,-0.006,-0.004,-0.005,0.002
614,0.001,-0.002,0.003,-0.004,0.001,0.0,-0.001,-0.004,0.0,-0.003,-0.002,-0.002,-0.003,-0.002,-0.002,-0.003,-0.003,-0.004,-0.004,-0.003,-0.006,-0.004,-0.008,0.009
615,0.002,0.0,0.006,0.004,0.004,0.001,0.001,-0.002,0.002,-0.001,0.0,0.0,-0.002,-0.001,-0.001,-0.001,0.0,-0.002,-0.004,-0.002,-0.004,-0.003,-0.008,0.011
616,0.006,0.005,0.011,0.004,0.008,0.005,0.005,0.004,0.007,0.004,0.005,0.004,0.003,0.004,0.003,0.003,0.004,0.003,0.001,0.003,0.001,0.002,-0.003,0.01
617,0.009,0.008,0.014,0.003,0.01,0.009,0.008,0.007,0.01,0.006,0.008,0.006,0.006,0.007,0.006,0.006,0.006,0.006,0.006,0.007,0.004,0.007,0.002,0.009
618,0.008,0.007,0.013,0.0,0.009,0.009,0.007,0.006,0.009,0.006,0.008,0.007,0.007,0.006,0.006,0.006,0.006,0.005,0.006,0.006,0.004,0.007,0.003,0.01
619,0.004,0.003,0.009,-0.003,0.005,0.007,0.004,0.004,0.007,0.004,0.006,0.005,0.004,0.004,0.004,0.005,0.003,0.002,0.004,0.004,0.003,0.005,0.003,0.013
620,0.003,0.003,0.008,-0.001,0.005,0.006,0.004,0.004,0.007,0.005,0.007,0.006,0.004,0.007,0.005,0.005,0.005,0.003,0.005,0.004,0.003,0.006,0.003,0.015
621,0.003,0.003,0.007,0.0,0.005,0.006,0.004,0.005,0.008,0.006,0.008,0.005,0.004,0.006,0.005,0.006,0.006,0.006,0.006,0.005,0.004,0.007,0.003,0.012
622,0.005,0.004,0.009,0.002,0.007,0.008,0.006,0.006,0.009,0.007,0.008,0.007,0.006,0.006,0.005,0.007,0.007,0.007,0.007,0.008,0.006,0.008,0.002,0.01
623,0.005,0.006,0.01,0.0,0.008,0.01,0.006,0.005,0.008,0.006,0.006,0.007,0.006,0.004,0.005,0.007,0.006,0.006,0.007,0.007,0.005,0.006,0.003,0.011
624,0.005,0.005,0.009,-0.004,0.008,0.01,0.005,0.005,0.007,0.005,0.004,0.005,0.004,0.004,0.004,0.005,0.004,0.003,0.005,0.005,0.003,0.003,0.004,0.009
625,0.004,0.003,0.007,-0.008,0.006,0.006,0.002,0.002,0.005,0.002,0.001,0.001,0.0,0.001,0.001,0.0,0.0,-0.001,0.0,0.0,-0.002,-0.001,-0.001,0.004
626,0.004,0.003,0.006,-0.005,0.004,0.004,0.001,0.001,0.003,0.001,0.001,-0.001,-0.002,0.0,-0.001,-0.001,-0.002,-0.003,-0.002,-0.002,-0.004,-0.002,-0.005,0.002
627,0.005,0.005,0.009,0.006,0.005,0.004,0.003,0.002,0.005,0.004,0.004,0.002,0.001,0.002,0.002,0.002,0.002,0.0,0.001,0.001,-0.001,0.001,-0.004,0.009
628,0.005,0.005,0.009,0.011,0.006,0.004,0.004,0.003,0.006,0.004,0.006,0.003,0.003,0.004,0.004,0.004,0.004,0.003,0.004,0.004,0.002,0.004,0.0,0.019
629,0.004,0.003,0.008,0.009,0.006,0.005,0.004,0.002,0.005,0.004,0.006,0.003,0.004,0.003,0.005,0.005,0.004,0.004,0.006,0.005,0.003,0.005,0.003,0.028
630,0.001,0.001,0.005,0.002,0.003,0.003,0.001,0.0,0.004,0.001,0.003,0.001,0.001,0.001,0.002,0.002,0.002,0.002,0.004,0.003,0.001,0.003,0.002,0.028
631,0.0,0.0,0.005,-0.001,0.002,0.002,0.001,0.001,0.004,0.001,0.002,0.001,0.001,0.001,0.002,0.002,0.003,0.001,0.003,0.003,0.0,0.003,0.002,0.024
632,0.002,0.003,0.006,-0.005,0.005,0.004,0.003,0.003,0.006,0.004,0.004,0.004,0.004,0.002,0.003,0.003,0.005,0.004,0.004,0.004,0.002,0.004,0.002,0.02
633,0.004,0.004,0.009,-0.003,0.008,0.008,0.006,0.006,0.007,0.006,0.006,0.007,0.006,0.004,0.005,0.007,0.007,0.005,0.006,0.007,0.004,0.007,0.003,0.018
634,0.007,0.007,0.012,0.0,0.01,0.01,0.008,0.008,0.009,0.008,0.008,0.008,0.008,0.007,0.008,0.008,0.009,0.007,0.008,0.008,0.006,0.009,0.005,0.017
635,0.008,0.007,0.014,0.006,0.01,0.011,0.008,0.008,0.01,0.008,0.01,0.009,0.008,0.009,0.008,0.009,0.01,0.007,0.01,0.01,0.007,0.008,0.005,0.019
636,0.01,0.01,0.017,0.015,0.013,0.013,0.01,0.009,0.012,0.01,0.012,0.011,0.011,0.014,0.009,0.011,0.012,0.01,0.011,0.012,0.008,0.01,0.006,0.025
637,0.009,0.01,0.016,0.018,0.013,0.013,0.01,0.008,0.012,0.01,0.012,0.01,0.01,0.013,0.009,0.01,0.011,0.01,0.01,0.011,0.007,0.009,0.004,0.029
638,0.009,0.009,0.015,0.02,0.013,0.014,0.011,0.009,0.012,0.01,0.011,0.01,0.011,0.012,0.01,0.01,0.01,0.009,0.01,0.01,0.008,0.01,0.005,0.035
639,0.006,0.007,0.013,0.011,0.009,0.011,0.009,0.007,0.01,0.007,0.009,0.009,0.009,0.008,0.008,0.009,0.008,0.008,0.009,0.008,0.007,0.009,0.004,0.03
640,0.005,0.005,0.012,0.004,0.008,0.009,0.007,0.006,0.009,0.006,0.008,0.008,0.007,0.006,0.007,0.007,0.007,0.006,0.008,0.007,0.005,0.007,0.004,0.025
641,0.004,0.003,0.01,-0.004,0.007,0.008,0.005,0.004,0.007,0.005,0.006,0.006,0.005,0.005,0.004,0.004,0.005,0.004,0.006,0.004,0.003,0.004,0.002,0.017
642,0.004,0.004,0.011,-0.008,0.009,0.01,0.006,0.004,0.008,0.005,0.006,0.005,0.006,0.003,0.003,0.005,0.004,0.003,0.005,0.004,0.003,0.004,0.003,0.014
643,0.006,0.006,0.013,-0.007,0.011,0.011,0.008,0.006,0.009,0.006,0.007,0.007,0.008,0.006,0.005,0.007,0.006,0.005,0.007,0.006,0.005,0.007,0.007,0.015
644,0.007,0.008,0.014,-0.004,0.011,0.011,0.01,0.009,0.011,0.008,0.01,0.011,0.01,0.008,0.008,0.009,0.009,0.007,0.01,0.009,0.008,0.01,0.01,0.017
645,0.008,0.007,0.013,0.004,0.01,0.01,0.009,0.01,0.01,0.009,0.01,0.011,0.01,0.009,0.009,0.01,0.009,0.008,0.011,0.01,0.009,0.011,0.009,0.017
646,0.006,0.005,0.009,0.01,0.006,0.007,0.005,0.007,0.007,0.006,0.008,0.006,0.006,0.005,0.007,0.007,0.007,0.006,0.007,0.008,0.005,0.008,0.005,0.016
647,0.004,0.003,0.006,0.009,0.004,0.004,0.001,0.003,0.004,0.003,0.004,0.002,0.002,0.002,0.003,0.003,0.002,0.002,0.003,0.003,0.001,0.004,0.0,0.018
648,0.004,0.005,0.009,0.006,0.006,0.005,0.003,0.004,0.006,0.004,0.005,0.004,0.004,0.004,0.004,0.004,0.003,0.003,0.004,0.003,0.002,0.004,0.001,0.023
649,0.007,0.008,0.013,0.005,0.009,0.009,0.007,0.007,0.01,0.007,0.009,0.008,0.007,0.007,0.006,0.007,0.006,0.006,0.007,0.006,0.005,0.007,0.003,0.022
650,0.01,0.009,0.015,0.008,0.012,0.012,0.01,0.009,0.013,0.01,0.012,0.009,0.009,0.01,0.008,0.009,0.009,0.009,0.009,0.01,0.007,0.009,0.006,0.021
651,0.012,0.009,0.015,0.01,0.013,0.014,0.011,0.011,0.013,0.011,0.013,0.01,0.01,0.011,0.01,0.01,0.01,0.011,0.01,0.012,0.008,0.012,0.009,0.019
652,0.011,0.008,0.013,0.009,0.013,0.013,0.01,0.01,0.012,0.009,0.013,0.01,0.011,0.01,0.01,0.011,0.01,0.011,0.011,0.013,0.009,0.012,0.011,0.02
653,0.011,0.009,0.014,0.009,0.014,0.014,0.01,0.012,0.013,0.011,0.013,0.013,0.012,0.012,0.012,0.013,0.013,0.013,0.013,0.014,0.011,0.014,0.012,0.022
654,0.011,0.011,0.015,0.011,0.015,0.015,0.012,0.013,0.014,0.012,0.013,0.013,0.012,0.012,0.012,0.013,0.013,0.011,0.013,0.013,0.011,0.014,0.011,0.024
655,0.012,0.012,0.016,0.013,0.014,0.015,0.012,0.012,0.013,0.01,0.013,0.012,0.011,0.012,0.01,0.012,0.011,0.01,0.011,0.011,0.009,0.012,0.009,0.028
656,0.009,0.01,0.014,0.008,0.012,0.012,0.009,0.008,0.011,0.006,0.009,0.008,0.008,0.008,0.008,0.008,0.008,0.006,0.008,0.008,0.006,0.009,0.005,0.026
657,0.006,0.006,0.01,0.001,0.008,0.008,0.005,0.004,0.008,0.003,0.005,0.006,0.006,0.005,0.005,0.006,0.005,0.004,0.005,0.005,0.003,0.006,0.001,0.018
658,0.007,0.006,0.011,0.002,0.008,0.009,0.006,0.005,0.009,0.005,0.006,0.008,0.006,0.006,0.006,0.007,0.007,0.005,0.006,0.006,0.005,0.008,0.0,0.015
659,0.009,0.008,0.012,0.014,0.009,0.011,0.009,0.008,0.011,0.008,0.009,0.011,0.008,0.007,0.009,0.008,0.01,0.008,0.01,0.01,0.008,0.01,0.002,0.027
660,0.011,0.01,0.014,0.019,0.012,0.013,0.011,0.011,0.013,0.011,0.01,0.012,0.009,0.009,0.009,0.009,0.011,0.01,0.011,0.012,0.01,0.012,0.005,0.039
661,0.007,0.006,0.011,0.01,0.009,0.009,0.007,0.007,0.01,0.008,0.007,0.008,0.006,0.006,0.007,0.006,0.008,0.008,0.008,0.009,0.006,0.008,0.005,0.039
662,0.005,0.004,0.009,0.002,0.006,0.006,0.004,0.004,0.007,0.004,0.005,0.005,0.004,0.005,0.003,0.003,0.005,0.004,0.004,0.004,0.003,0.005,0.003,0.03
663,0.005,0.005,0.01,0.0,0.007,0.007,0.004,0.003,0.007,0.004,0.005,0.006,0.004,0.006,0.004,0.004,0.006,0.004,0.004,0.004,0.004,0.005,0.003,0.026
664,0.009,0.008,0.013,0.008,0.012,0.012,0.008,0.007,0.011,0.008,0.009,0.01,0.009,0.009,0.008,0.009,0.011,0.008,0.009,0.008,0.009,0.01,0.007,0.03
665,0.01,0.009,0.016,0.015,0.014,0.014,0.011,0.009,0.013,0.011,0.013,0.012,0.012,0.01,0.012,0.012,0.014,0.012,0.014,0.012,0.012,0.014,0.009,0.038
666,0.009,0.009,0.016,0.016,0.013,0.013,0.012,0.01,0.013,0.012,0.014,0.014,0.013,0.011,0.013,0.014,0.015,0.012,0.015,0.013,0.012,0.014,0.009,0.046
667,0.005,0.005,0.013,0.01,0.009,0.009,0.007,0.007,0.011,0.008,0.009,0.009,0.009,0.008,0.009,0.008,0.009,0.008,0.009,0.008,0.008,0.01,0.006,0.037
668,0.005,0.005,0.012,0.003,0.008,0.007,0.004,0.006,0.008,0.005,0.006,0.006,0.005,0.007,0.004,0.005,0.005,0.004,0.004,0.004,0.004,0.005,0.003,0.025
669,0.005,0.004,0.01,-0.005,0.007,0.006,0.003,0.004,0.006,0.003,0.004,0.003,0.003,0.006,0.001,0.002,0.002,0.001,0.002,0.002,0.001,0.001,0.001,0.017
670,0.003,0.001,0.007,-0.01,0.004,0.003,0.001,0.001,0.003,0.001,0.003,0.001,0.0,0.004,-0.001,0.001,0.0,-0.001,0.0,0.001,-0.002,0.0,-0.001,0.02
671,0.002,0.0,0.005,-0.011,0.003,0.003,0.001,0.001,0.002,0.0,0.003,0.001,0.0,0.002,-0.001,0.0,0.0,0.0,0.0,0.0,-0.003,0.001,0.0,0.023
672,0.002,0.003,0.007,-0.007,0.004,0.005,0.001,0.002,0.003,0.001,0.003,0.001,0.0,0.001,0.0,0.0,0.0,0.001,0.0,0.001,-0.002,0.002,0.0,0.026
673,0.004,0.005,0.009,-0.001,0.005,0.007,0.003,0.005,0.004,0.004,0.005,0.003,0.002,0.003,0.002,0.002,0.002,0.004,0.002,0.002,0.001,0.003,0.001,0.021
674,0.004,0.005,0.009,-0.001,0.005,0.007,0.003,0.005,0.004,0.005,0.005,0.004,0.003,0.003,0.002,0.002,0.002,0.002,0.004,0.003,0.001,0.003,0.003,0.019
675,0.005,0.005,0.008,0.002,0.006,0.007,0.004,0.005,0.006,0.005,0.006,0.004,0.004,0.002,0.002,0.003,0.003,0.001,0.005,0.003,0.001,0.003,0.004,0.026
676,0.008,0.006,0.011,0.008,0.009,0.01,0.006,0.007,0.008,0.007,0.009,0.006,0.006,0.003,0.005,0.006,0.006,0.004,0.007,0.006,0.002,0.005,0.006,0.036
677,0.01,0.01,0.014,0.017,0.012,0.012,0.009,0.009,0.012,0.009,0.011,0.01,0.009,0.007,0.008,0.01,0.009,0.009,0.009,0.009,0.006,0.009,0.007,0.041
678,0.011,0.011,0.017,0.018,0.013,0.013,0.011,0.009,0.013,0.01,0.011,0.013,0.01,0.01,0.009,0.01,0.011,0.01,0.01,0.01,0.009,0.01,0.009,0.042
679,0.01,0.011,0.015,0.006,0.012,0.013,0.011,0.009,0.012,0.009,0.01,0.011,0.009,0.011,0.008,0.009,0.009,0.008,0.009,0.008,0.008,0.009,0.007,0.034
680,0.009,0.009,0.012,-0.007,0.01,0.01,0.009,0.006,0.009,0.007,0.008,0.008,0.007,0.008,0.004,0.006,0.006,0.005,0.006,0.005,0.004,0.006,0.005,0.022
681,0.007,0.006,0.01,-0.014,0.007,0.007,0.006,0.005,0.007,0.006,0.005,0.005,0.004,0.005,0.003,0.004,0.003,0.003,0.004,0.004,0.001,0.004,0.004,0.014
682,0.006,0.005,0.008,-0.008,0.006,0.005,0.004,0.004,0.005,0.004,0.004,0.003,0.003,0.003,0.002,0.004,0.002,0.003,0.003,0.003,0.001,0.003,0.002,0.019
683,0.007,0.006,0.01,-0.002,0.007,0.007,0.005,0.005,0.005,0.004,0.006,0.004,0.005,0.003,0.003,0.005,0.003,0.004,0.005,0.004,0.002,0.005,0.003,0.025
684,0.007,0.006,0.011,-0.001,0.008,0.008,0.006,0.005,0.005,0.004,0.007,0.005,0.006,0.005,0.004,0.006,0.006,0.006,0.006,0.006,0.004,0.008,0.006,0.023
685,0.008,0.007,0.013,0.001,0.01,0.011,0.009,0.008,0.009,0.007,0.009,0.008,0.009,0.008,0.007,0.008,0.009,0.008,0.008,0.007,0.006,0.011,0.009,0.018
686,0.012,0.012,0.016,0.007,0.013,0.015,0.013,0.012,0.014,0.011,0.013,0.011,0.011,0.011,0.01,0.011,0.011,0.01,0.01,0.01,0.009,0.013,0.011,0.018
687,0.016,0.014,0.019,0.015,0.016,0.018,0.015,0.014,0.017,0.013,0.015,0.014,0.013,0.013,0.012,0.013,0.012,0.011,0.012,0.012,0.011,0.014,0.01,0.024
688,0.017,0.016,0.02,0.015,0.017,0.018,0.015,0.015,0.018,0.015,0.016,0.016,0.015,0.015,0.012,0.014,0.013,0.013,0.014,0.013,0.012,0.012,0.01,0.034
689,0.016,0.016,0.02,0.008,0.018,0.017,0.015,0.016,0.017,0.015,0.017,0.016,0.015,0.017,0.013,0.015,0.014,0.014,0.015,0.014,0.013,0.012,0.01,0.034
690,0.014,0.014,0.019,-0.001,0.016,0.016,0.014,0.013,0.015,0.013,0.015,0.013,0.014,0.015,0.011,0.013,0.014,0.012,0.015,0.013,0.011,0.012,0.01,0.031
691,0.011,0.012,0.016,-0.008,0.014,0.014,0.012,0.011,0.014,0.011,0.013,0.011,0.01,0.012,0.008,0.01,0.012,0.01,0.013,0.012,0.009,0.011,0.009,0.025
692,0.008,0.008,0.013,-0.01,0.011,0.011,0.008,0.009,0.012,0.009,0.01,0.008,0.008,0.01,0.006,0.008,0.009,0.009,0.01,0.009,0.007,0.009,0.007,0.018
693,0.007,0.006,0.013,-0.011,0.01,0.01,0.009,0.007,0.01,0.008,0.009,0.007,0.006,0.007,0.007,0.007,0.007,0.008,0.008,0.008,0.006,0.008,0.006,0.012
694,0.005,0.005,0.013,-0.01,0.008,0.009,0.006,0.006,0.008,0.005,0.007,0.005,0.005,0.006,0.004,0.004,0.006,0.005,0.005,0.005,0.003,0.005,0.003,0.01
695,0.005,0.006,0.012,-0.002,0.008,0.009,0.005,0.006,0.008,0.004,0.007,0.005,0.005,0.007,0.003,0.004,0.005,0.003,0.004,0.005,0.001,0.003,0.002,0.011
696,0.008,0.008,0.014,-0.001,0.011,0.013,0.007,0.009,0.011,0.009,0.011,0.009,0.01,0.012,0.007,0.008,0.009,0.008,0.008,0.009,0.006,0.007,0.007,0.015
697,0.011,0.01,0.014,-0.008,0.012,0.015,0.01,0.011,0.014,0.012,0.012,0.012,0.012,0.013,0.01,0.011,0.012,0.012,0.011,0.012,0.01,0.012,0.013,0.021
698,0.009,0.008,0.012,-0.013,0.009,0.012,0.008,0.009,0.011,0.009,0.009,0.01,0.008,0.007,0.008,0.009,0.01,0.009,0.008,0.009,0.007,0.009,0.012,0.024
699,0.004,0.005,0.007,-0.004,0.004,0.005,0.004,0.004,0.008,0.004,0.004,0.005,0.002,0.0,0.003,0.003,0.004,0.002,0.003,0.004,0.002,0.004,0.005,0.02
700,0.002,0.003,0.006,0.004,0.003,0.003,0.001,0.002,0.004,0.002,0.002,0.003,-0.001,-0.003,0.001,0.0,0.001,-0.001,0.0,0.0,-0.002,0.001,0.0,0.016
701,0.003,0.003,0.006,0.007,0.004,0.003,0.002,0.002,0.004,0.002,0.002,0.002,0.0,-0.001,0.0,0.0,0.0,0.0,0.0,0.0,-0.003,0.001,-0.002,0.021
702,0.004,0.004,0.007,0.01,0.005,0.004,0.003,0.003,0.004,0.002,0.003,0.003,0.001,0.002,0.002,0.001,0.001,0.002,0.002,0.0,-0.002,0.002,-0.002,0.024
703,0.003,0.004,0.007,0.007,0.005,0.004,0.004,0.003,0.005,0.002,0.003,0.003,0.001,0.001,0.001,-0.001,0.0,-0.001,0.001,0.001,-0.002,0.002,-0.002,0.019
704,0.004,0.003,0.005,0.002,0.005,0.004,0.004,0.001,0.004,0.001,0.001,0.002,0.0,-0.001,0.0,-0.002,-0.001,-0.002,0.0,0.0,-0.002,0.001,-0.004,0.016
705,0.004,0.004,0.006,0.001,0.006,0.006,0.004,0.002,0.004,0.003,0.003,0.002,0.001,-0.002,0.0,0.0,0.0,-0.002,0.0,0.001,-0.002,0.002,-0.001,0.013
706,0.007,0.006,0.011,0.005,0.008,0.009,0.007,0.005,0.007,0.005,0.005,0.004,0.002,0.002,0.003,0.004,0.005,0.002,0.003,0.003,0.001,0.004,0.004,0.019
707,0.01,0.009,0.016,0.0,0.012,0.012,0.009,0.009,0.011,0.008,0.008,0.007,0.005,0.007,0.006,0.007,0.007,0.006,0.006,0.005,0.004,0.007,0.007,0.02
708,0.011,0.011,0.016,-0.003,0.014,0.013,0.011,0.01,0.013,0.009,0.01,0.009,0.008,0.01,0.008,0.009,0.009,0.008,0.009,0.007,0.006,0.008,0.007,0.019
709,0.01,0.011,0.016,-0.007,0.014,0.013,0.011,0.01,0.013,0.011,0.011,0.01,0.01,0.01,0.008,0.009,0.009,0.008,0.01,0.009,0.007,0.009,0.006,0.02
710,0.009,0.01,0.016,-0.004,0.013,0.013,0.011,0.01,0.014,0.011,0.011,0.011,0.012,0.012,0.009,0.01,0.012,0.009,0.011,0.01,0.008,0.011,0.01,0.019
711,0.008,0.008,0.015,-0.007,0.01,0.011,0.01,0.008,0.012,0.01,0.009,0.01,0.01,0.011,0.008,0.009,0.01,0.009,0.009,0.008,0.008,0.011,0.011,0.013
712,0.008,0.008,0.012,-0.008,0.009,0.009,0.008,0.007,0.011,0.007,0.008,0.008,0.007,0.007,0.006,0.007,0.007,0.007,0.007,0.006,0.006,0.009,0.009,0.01
713,0.004,0.006,0.008,-0.01,0.006,0.007,0.005,0.005,0.007,0.004,0.004,0.005,0.003,0.002,0.003,0.004,0.004,0.002,0.004,0.003,0.003,0.005,0.004,0.009
714,0.002,0.004,0.006,-0.008,0.005,0.005,0.004,0.003,0.004,0.002,0.003,0.003,0.001,-0.002,0.002,0.001,0.002,0.0,0.002,0.001,0.001,0.003,0.001,0.008
715,0.002,0.003,0.006,-0.005,0.005,0.005,0.003,0.002,0.004,0.002,0.003,0.003,0.001,-0.001,0.001,0.0,0.003,0.001,0.001,0.0,0.0,0.002,-0.002,0.007
716,0.006,0.005,0.01,-0.001,0.008,0.007,0.005,0.003,0.006,0.003,0.005,0.005,0.004,0.004,0.004,0.003,0.003,0.003,0.003,0.001,0.002,0.002,0.0,0.011
717,0.007,0.007,0.013,0.001,0.01,0.009,0.006,0.005,0.009,0.005,0.007,0.008,0.006,0.006,0.006,0.004,0.004,0.004,0.005,0.004,0.002,0.003,0.002,0.014
718,0.006,0.005,0.011,0.001,0.009,0.008,0.005,0.005,0.008,0.005,0.005,0.006,0.004,0.005,0.005,0.003,0.003,0.004,0.005,0.005,0.001,0.003,0.001,0.014
719,0.006,0.005,0.01,0.008,0.009,0.008,0.005,0.005,0.006,0.004,0.005,0.005,0.004,0.003,0.003,0.004,0.004,0.004,0.005,0.004,0.001,0.004,0.0,0.014
720,0.008,0.006,0.01,0.01,0.007,0.008,0.005,0.005,0.005,0.004,0.006,0.005,0.002,0.004,0.002,0.004,0.002,0.004,0.004,0.002,0.001,0.003,0.0,0.017
721,0.006,0.008,0.009,0.004,0.006,0.007,0.003,0.005,0.004,0.003,0.005,0.005,0.003,0.003,0.002,0.002,0.002,0.001,0.002,0.0,-0.001,0.002,0.0,0.019
722,0.005,0.006,0.01,-0.002,0.006,0.007,0.002,0.005,0.005,0.002,0.004,0.004,0.003,0.004,0.004,0.002,0.002,0.0,0.003,0.002,0.001,0.003,0.0,0.019
723,0.003,0.001,0.008,-0.004,0.003,0.004,0.001,0.001,0.002,0.0,0.002,0.002,0.001,0.004,0.003,0.0,0.001,-0.001,0.002,0.001,0.0,0.002,0.0,0.01
724,0.001,-0.002,0.005,-0.009,0.002,0.002,-0.001,-0.001,0.0,-0.001,0.0,0.0,-0.002,0.003,0.002,-0.002,0.0,-0.002,0.001,0.0,-0.001,0.001,-0.001,-0.001
725,-0.001,-0.002,0.003,-0.01,0.001,0.001,-0.002,-0.001,0.0,-0.001,-0.001,-0.001,-0.002,0.001,-0.001,-0.003,-0.001,-0.002,-0.002,-0.001,-0.003,0.0,-0.002,-0.005
726,0.002,0.001,0.006,-0.001,0.005,0.003,0.002,0.001,0.003,0.002,0.001,0.001,0.002,0.0,0.0,0.001,0.0,0.0,0.001,0.001,-0.002,0.001,-0.003,-0.003
727,0.004,0.003,0.008,0.005,0.008,0.005,0.004,0.003,0.005,0.003,0.004,0.004,0.004,0.0,0.002,0.003,0.003,0.002,0.004,0.002,0.001,0.003,-0.002,0.003
728,0.002,0.001,0.006,0.004,0.006,0.005,0.002,0.002,0.003,0.001,0.003,0.004,0.0,-0.001,0.0,0.002,0.003,0.0,0.003,0.002,0.001,0.002,-0.003,0.003
729,-0.003,-0.003,0.001,-0.005,0.001,0.0,-0.003,-0.003,-0.002,-0.003,-0.002,-0.003,-0.005,-0.004,-0.006,-0.004,-0.003,-0.005,-0.003,-0.005,-0.005,-0.003,-0.007,-0.002
730,-0.007,-0.006,-0.001,-0.009,-0.004,-0.005,-0.006,-0.007,-0.005,-0.008,-0.006,-0.007,-0.009,-0.006,-0.01,-0.009,-0.008,-0.009,-0.008,-0.009,-0.009,-0.007,-0.011,-0.004
731,-0.006,-0.004,0.001,-0.013,-0.003,-0.004,-0.004,-0.006,-0.003,-0.006,-0.005,-0.006,-0.007,-0.004,-0.008,-0.007,-0.007,-0.008,-0.007,-0.008,-0.008,-0.005,-0.008,-0.003
732,-0.003,-0.004,0.003,-0.012,-0.003,-0.003,-0.003,-0.004,-0.002,-0.003,-0.003,-0.005,-0.005,-0.003,-0.006,-0.004,-0.004,-0.007,-0.005,-0.006,-0.007,-0.004,-0.004,0.005
733,-0.003,-0.005,0.001,-0.02,-0.004,-0.004,-0.005,-0.005,-0.003,-0.004,-0.005,-0.007,-0.006,-0.006,-0.006,-0.006,-0.006,-0.008,-0.008,-0.008,-0.01,-0.006,-0.006,0.004
734,-0.006,-0.008,-0.003,-0.022,-0.007,-0.007,-0.009,-0.007,-0.006,-0.009,-0.009,-0.01,-0.01,-0.011,-0.009,-0.012,-0.012,-0.012,-0.012,-0.011,-0.014,-0.012,-0.01,-0.002
735,-0.004,-0.005,-0.002,-0.018,-0.003,-0.005,-0.008,-0.006,-0.005,-0.008,-0.007,-0.007,-0.009,-0.011,-0.009,-0.011,-0.011,-0.01,-0.01,-0.01,-0.013,-0.011,-0.01,-0.004
736,0.001,0.001,0.002,-0.006,0.004,0.002,-0.001,-0.001,0.001,0.0,0.0,0.001,-0.003,-0.005,-0.003,-0.003,-0.004,-0.004,-0.003,-0.004,-0.006,-0.004,-0.005,0.008
737,0.005,0.006,0.008,0.0,0.008,0.007,0.006,0.004,0.006,0.006,0.006,0.005,0.002,0.001,0.003,0.002,0.002,0.003,0.002,0.001,0.0,0.003,-0.001,0.015
738,0.005,0.006,0.01,0.004,0.007,0.007,0.009,0.005,0.008,0.006,0.007,0.005,0.004,0.002,0.004,0.003,0.004,0.003,0.005,0.002,0.001,0.005,-0.002,0.018
739,0.005,0.005,0.01,0.005,0.006,0.005,0.007,0.004,0.007,0.004,0.005,0.004,0.003,-0.001,0.003,0.001,0.002,0.003,0.002,0.002,0.0,0.003,-0.006,0.012
740,0.004,0.003,0.01,0.007,0.005,0.005,0.004,0.003,0.006,0.004,0.003,0.004,0.002,-0.003,0.001,0.002,0.002,0.002,0.001,0.001,0.0,0.0,-0.005,0.007
741,0.001,0.001,0.007,-0.002,0.005,0.003,0.002,0.0,0.003,0.002,0.002,0.003,0.001,-0.004,0.0,0.001,0.001,0.0,0.0,0.0,-0.001,-0.001,-0.002,0.003
742,0.0,0.001,0.007,-0.005,0.006,0.003,0.002,0.0,0.003,0.002,0.003,0.003,0.0,-0.002,0.001,0.001,0.002,0.0,0.002,0.001,0.0,0.001,0.0,0.005
743,0.0,0.003,0.006,-0.007,0.004,0.003,0.003,0.001,0.003,0.003,0.004,0.004,0.001,0.001,0.003,0.001,0.002,0.002,0.003,0.003,0.0,0.003,0.001,0.005
744,-0.001,0.001,0.005,-0.006,0.002,0.003,0.001,0.0,0.003,0.001,0.002,0.003,0.001,0.002,0.0,0.001,0.001,0.001,0.0,0.002,-0.001,0.001,0.001,-0.001
745,-0.004,-0.004,0.001,-0.012,-0.003,0.001,-0.006,-0.006,-0.002,-0.004,-0.003,-0.004,-0.004,-0.001,-0.006,-0.005,-0.005,-0.007,-0.006,-0.006,-0.007,-0.007,-0.005,-0.007
746,-0.004,-0.005,0.001,-0.012,-0.002,0.0,-0.007,-0.006,-0.004,-0.006,-0.005,-0.006,-0.006,-0.003,-0.008,-0.007,-0.008,-0.008,-0.009,-0.009,-0.011,-0.009,-0.01,-0.009
747,-0.002,-0.001,0.006,-0.005,0.002,0.0,-0.002,-0.001,0.001,-0.001,-0.001,-0.002,-0.002,0.002,-0.005,-0.003,-0.005,-0.005,-0.006,-0.005,-0.01,-0.005,-0.01,-0.009
748,-0.001,0.001,0.008,0.001,0.005,0.0,0.001,0.002,0.003,0.002,0.002,0.002,0.003,0.006,-0.001,0.001,-0.001,-0.002,-0.001,-0.001,-0.006,-0.002,-0.007,-0.004
749,-0.001,-0.002,0.003,-0.001,0.001,-0.001,-0.001,-0.001,0.001,0.0,0.001,0.001,0.001,0.003,-0.002,-0.001,0.0,-0.002,-0.001,-0.001,-0.003,-0.003,-0.004,0.001
750,0.0,0.0,0.0,0.0,0.0,0.0,0.0,0.0,0.0,0.0,0.0,0.0,0.0,0.0,0.0,0.0,0.0,0.0,0.0,0.0,0.0,0.0,0.0,0.0
