,0,1,2,3,4,5,6,7
220,0.435,0.418,-0.08,-0.289,-0.415,0.524,0.497,0.204
221,0.43,0.412,0.094,-0.009,-0.007,0.571,0.542,0.229
222,0.446,0.428,0.169,0.239,0.266,0.619,0.591,0.249
223,0.476,0.46,0.135,0.17,0.169,0.677,0.645,0.268
224,0.517,0.499,0.146,0.187,0.182,0.738,0.701,0.29
225,0.561,0.543,0.175,0.191,0.201,0.795,0.758,0.314
226,0.614,0.594,0.185,0.171,0.311,0.854,0.817,0.341
227,0.675,0.651,0.236,0.226,0.584,0.922,0.887,0.369
228,0.745,0.718,0.495,0.517,0.94,0.998,0.964,0.397
229,0.813,0.783,0.881,0.937,1.145,1.069,1.032,0.424
230,0.873,0.846,1.199,1.253,1.076,1.125,1.088,0.448
231,0.929,0.901,1.248,1.28,0.809,1.156,1.124,0.469
232,0.973,0.951,1.052,1.058,0.561,1.175,1.147,0.491
233,1.021,1.004,0.843,0.838,0.423,1.2,1.18,0.515
234,1.07,1.052,0.701,0.699,0.352,1.23,1.208,0.54
235,1.121,1.093,0.626,0.626,0.314,1.265,1.237,0.564
236,1.158,1.129,0.595,0.596,0.298,1.283,1.265,0.585
237,1.187,1.159,0.584,0.585,0.294,1.291,1.281,0.603
238,1.209,1.187,0.586,0.588,0.294,1.284,1.29,0.618
239,1.231,1.208,0.595,0.594,0.297,1.291,1.3,0.632
240,1.277,1.245,0.605,0.605,0.301,1.326,1.322,0.648
241,1.328,1.306,0.618,0.62,0.306,1.389,1.377,0.666
242,1.399,1.375,0.638,0.639,0.316,1.461,1.444,0.682
243,1.429,1.41,0.656,0.659,0.326,1.494,1.467,0.691
244,1.418,1.394,0.669,0.673,0.334,1.471,1.454,0.691
245,1.4,1.376,0.676,0.681,0.338,1.443,1.425,0.685
246,1.418,1.401,0.685,0.69,0.342,1.456,1.437,0.68
247,1.461,1.449,0.699,0.702,0.347,1.489,1.478,0.676
248,1.484,1.467,0.716,0.719,0.355,1.499,1.479,0.665
249,1.452,1.427,0.725,0.729,0.36,1.44,1.428,0.644
250,1.372,1.346,0.722,0.729,0.36,1.346,1.337,0.613
251,1.313,1.284,0.721,0.728,0.36,1.269,1.267,0.579
252,1.256,1.237,0.727,0.732,0.364,1.202,1.206,0.54
253,1.199,1.183,0.742,0.747,0.374,1.123,1.133,0.494
254,1.134,1.117,0.752,0.757,0.382,1.018,1.031,0.442
255,1.061,1.044,0.742,0.747,0.377,0.89,0.91,0.384
256,1.023,0.995,0.724,0.73,0.366,0.769,0.795,0.328
257,0.992,0.967,0.716,0.72,0.36,0.658,0.685,0.278
258,0.958,0.932,0.739,0.742,0.372,0.551,0.579,0.231
259,0.906,0.877,0.79,0.795,0.397,0.455,0.481,0.19
260,0.818,0.794,0.827,0.833,0.414,0.376,0.399,0.157
261,0.703,0.68,0.817,0.821,0.408,0.313,0.334,0.13
262,0.57,0.552,0.766,0.769,0.383,0.266,0.283,0.112
263,0.442,0.426,0.706,0.706,0.353,0.23,0.244,0.098
264,0.334,0.321,0.662,0.663,0.332,0.204,0.214,0.088
265,0.252,0.243,0.645,0.647,0.324,0.186,0.193,0.081
266,0.194,0.189,0.633,0.635,0.317,0.175,0.179,0.075
267,0.154,0.152,0.599,0.6,0.299,0.17,0.172,0.072
268,0.129,0.129,0.54,0.539,0.269,0.169,0.17,0.072
269,0.113,0.113,0.482,0.479,0.24,0.171,0.17,0.073
270,0.104,0.102,0.435,0.432,0.216,0.174,0.172,0.074
271,0.1,0.097,0.382,0.379,0.189,0.176,0.173,0.074
272,0.099,0.096,0.297,0.293,0.146,0.179,0.175,0.074
273,0.1,0.097,0.203,0.198,0.098,0.18,0.177,0.074
274,0.099,0.097,0.141,0.133,0.066,0.182,0.179,0.075
275,0.095,0.093,0.106,0.098,0.049,0.184,0.179,0.075
276,0.09,0.087,0.088,0.08,0.041,0.186,0.182,0.076
277,0.085,0.082,0.075,0.068,0.035,0.189,0.185,0.077
278,0.083,0.08,0.064,0.058,0.029,0.193,0.189,0.08
279,0.086,0.084,0.057,0.05,0.025,0.196,0.192,0.081
280,0.091,0.09,0.051,0.044,0.021,0.196,0.193,0.081
281,0.097,0.095,0.048,0.041,0.021,0.195,0.192,0.08
282,0.099,0.096,0.047,0.04,0.022,0.19,0.188,0.079
283,0.092,0.09,0.045,0.038,0.021,0.182,0.179,0.076
284,0.077,0.077,0.043,0.036,0.019,0.173,0.171,0.072
285,0.061,0.063,0.041,0.034,0.017,0.164,0.163,0.068
286,0.051,0.052,0.04,0.032,0.016,0.157,0.156,0.066
287,0.046,0.047,0.038,0.03,0.016,0.153,0.151,0.065
288,0.048,0.049,0.035,0.028,0.015,0.149,0.146,0.063
289,0.058,0.057,0.032,0.025,0.014,0.143,0.141,0.06
290,0.069,0.067,0.03,0.023,0.014,0.136,0.135,0.057
291,0.07,0.067,0.028,0.021,0.013,0.126,0.126,0.054
292,0.054,0.054,0.024,0.017,0.011,0.112,0.113,0.049
293,0.031,0.034,0.021,0.013,0.008,0.097,0.098,0.042
294,0.015,0.017,0.017,0.01,0.005,0.081,0.082,0.035
295,0.008,0.01,0.015,0.008,0.004,0.068,0.068,0.03
296,0.007,0.008,0.015,0.007,0.005,0.056,0.057,0.026
297,0.007,0.008,0.014,0.006,0.004,0.046,0.047,0.022
298,0.005,0.007,0.013,0.004,0.003,0.037,0.038,0.019
299,0.004,0.007,0.012,0.004,0.004,0.031,0.032,0.016
300,0.005,0.007,0.012,0.005,0.004,0.025,0.025,0.014
301,0.003,0.005,0.011,0.004,0.002,0.02,0.02,0.011
302,0.002,0.004,0.009,0.002,0.001,0.016,0.015,0.008
303,0.001,0.004,0.008,0,0,0.013,0.011,0.006
304,0.001,0.005,0.008,0,-0.001,0.011,0.01,0.006
305,0.001,0.006,0.008,0,-0.001,0.011,0.009,0.007
306,0.001,0.006,0.009,0.001,0,0.01,0.009,0.008
307,0.001,0.006,0.01,0.001,0,0.01,0.009,0.008
308,0.002,0.006,0.01,0.002,0.001,0.011,0.009,0.008
309,0.001,0.005,0.009,0,0,0.01,0.008,0.007
310,0.001,0.005,0.008,-0.001,0,0.009,0.007,0.007
311,0,0.004,0.007,-0.001,-0.001,0.008,0.006,0.006
312,-0.002,0.003,0.007,-0.002,-0.002,0.007,0.005,0.005
313,-0.002,0.003,0.007,-0.002,-0.002,0.007,0.005,0.004
314,-0.002,0.002,0.006,-0.003,-0.003,0.006,0.004,0.004
315,-0.002,0.002,0.006,-0.002,-0.002,0.006,0.003,0.003
316,-0.001,0.002,0.007,-0.001,-0.002,0.007,0.004,0.005
317,-0.001,0.003,0.007,0,-0.001,0.007,0.005,0.005
318,0,0.004,0.008,0.001,-0.001,0.007,0.005,0.006
319,0,0.004,0.008,0,-0.002,0.007,0.006,0.005
320,-0.001,0.003,0.006,-0.002,-0.003,0.007,0.004,0.004
321,-0.002,0.002,0.005,-0.003,-0.004,0.007,0.004,0.003
322,-0.003,0.001,0.004,-0.004,-0.004,0.005,0.004,0.002
323,-0.004,0,0.003,-0.005,-0.005,0.004,0.003,0.001
324,-0.005,0.001,0.003,-0.004,-0.005,0.004,0.002,0.001
325,-0.005,0.001,0.003,-0.004,-0.006,0.004,0.002,0.002
326,-0.004,0.002,0.003,-0.005,-0.006,0.004,0.002,0.002
327,-0.004,0.001,0.003,-0.005,-0.006,0.004,0.003,0.003
328,-0.003,0.002,0.004,-0.004,-0.005,0.005,0.003,0.002
329,-0.003,0.001,0.003,-0.004,-0.004,0.004,0.002,0.001
330,-0.002,0,0.002,-0.003,-0.004,0.003,0.001,0.001
331,-0.002,0,0.002,-0.004,-0.005,0.003,0.001,0.001
332,-0.004,0,0.002,-0.005,-0.005,0.003,0.001,0.001
333,-0.005,0.001,0.003,-0.005,-0.005,0.004,0.002,0.002
334,-0.005,0.002,0.004,-0.005,-0.005,0.005,0.002,0.002
335,-0.007,0,0.002,-0.006,-0.006,0.003,0,0.001
336,-0.006,-0.001,0.001,-0.007,-0.008,0.001,-0.001,0
337,-0.006,-0.002,-0.001,-0.008,-0.008,0,-0.002,-0.002
338,-0.005,-0.001,0,-0.007,-0.007,0.001,-0.002,-0.001
339,-0.004,0,0,-0.006,-0.006,0.001,-0.001,0
340,-0.006,-0.001,0,-0.007,-0.007,0.001,-0.001,0
341,-0.007,-0.001,0,-0.008,-0.008,0.001,-0.002,0
342,-0.006,-0.001,0.001,-0.008,-0.007,0.002,-0.001,0
343,-0.005,-0.001,0.001,-0.007,-0.006,0.002,-0.001,0
344,-0.004,0,0.002,-0.006,-0.004,0.003,0,0
345,-0.004,0,0.001,-0.006,-0.005,0.001,0,0
346,-0.005,-0.001,0.001,-0.007,-0.007,0,-0.001,-0.001
347,-0.007,-0.002,0,-0.009,-0.009,-0.001,-0.002,-0.002
348,-0.008,-0.002,-0.001,-0.009,-0.009,-0.001,-0.003,-0.002
349,-0.008,-0.001,0,-0.008,-0.007,0,-0.002,-0.001
350,-0.007,-0.001,0,-0.007,-0.007,0,-0.002,0
351,-0.005,-0.001,0,-0.007,-0.007,0,-0.002,0
352,-0.004,-0.001,0.001,-0.007,-0.007,0,-0.002,-0.001
353,-0.004,-0.001,0,-0.007,-0.008,0.001,-0.002,-0.001
354,-0.005,0,0.001,-0.007,-0.007,0.002,-0.001,-0.001
355,-0.006,0,0.001,-0.007,-0.007,0.002,-0.002,0
356,-0.005,0,0.002,-0.006,-0.006,0.002,-0.001,0
357,-0.004,0,0.002,-0.005,-0.006,0.001,-0.002,0
358,-0.003,0,0.001,-0.005,-0.006,0.001,-0.002,-0.001
359,-0.003,0,0.001,-0.006,-0.006,0,-0.001,0
360,-0.004,-0.001,0,-0.006,-0.006,0,-0.002,0
361,-0.004,-0.001,0,-0.006,-0.005,0,-0.001,0
362,-0.005,-0.002,-0.001,-0.006,-0.006,-0.001,-0.002,0
363,-0.004,-0.001,0,-0.006,-0.006,-0.001,-0.003,0
364,-0.004,-0.001,0,-0.007,-0.006,-0.002,-0.003,-0.002
365,-0.004,-0.001,0,-0.007,-0.007,-0.002,-0.004,-0.001
366,-0.005,0,0.002,-0.006,-0.005,0,-0.003,0
367,-0.006,0.001,0.001,-0.006,-0.006,0,-0.003,0
368,-0.005,0.002,0.001,-0.006,-0.006,0,-0.002,0
369,-0.003,0.002,0.002,-0.006,-0.005,0.001,-0.001,0
370,-0.002,0.002,0.002,-0.005,-0.005,0.001,-0.001,0
371,-0.002,0.001,0.002,-0.004,-0.004,0,-0.001,0.001
372,-0.003,0.001,0.002,-0.003,-0.004,0,-0.001,0.001
373,-0.004,0.001,0.002,-0.004,-0.005,0,-0.001,0.002
374,-0.004,0.002,0.003,-0.005,-0.006,0.001,-0.001,0.002
375,-0.004,0.002,0.003,-0.005,-0.006,0.002,0,0.002
376,-0.003,0.003,0.004,-0.004,-0.006,0.003,0.001,0.002
377,-0.002,0.003,0.003,-0.005,-0.005,0.003,0,0.003
378,-0.002,0.002,0.002,-0.006,-0.005,0.001,-0.002,0.001
379,-0.004,0,0.001,-0.006,-0.006,0,-0.003,0
380,-0.005,0.001,0.001,-0.005,-0.005,0.001,-0.002,0.001
381,-0.005,0.003,0.002,-0.004,-0.005,0.002,-0.001,0.002
382,-0.003,0.004,0.004,-0.003,-0.004,0.002,0,0.002
383,-0.002,0.005,0.005,-0.004,-0.004,0.002,0,0.002
384,-0.003,0.003,0.003,-0.005,-0.004,0.001,-0.001,0.002
385,-0.004,0.002,0.003,-0.006,-0.004,0.001,-0.002,0.001
386,-0.005,0.001,0.002,-0.007,-0.005,0.001,-0.003,0.001
387,-0.007,0,0.001,-0.007,-0.006,0,-0.002,0.001
388,-0.007,0.001,0.002,-0.005,-0.005,0.001,-0.001,0.001
389,-0.005,0.003,0.004,-0.003,-0.003,0.003,0,0.003
390,-0.002,0.004,0.005,-0.003,-0.002,0.004,0.001,0.003
391,-0.001,0.002,0.004,-0.004,-0.003,0.002,0,0.002
392,-0.002,0.001,0.003,-0.005,-0.004,0.001,0,0.002
393,-0.004,0.002,0.002,-0.005,-0.005,0.001,-0.001,0.001
394,-0.007,0.002,0.002,-0.006,-0.006,0,-0.001,0.001
395,-0.008,0.001,0.001,-0.007,-0.008,-0.001,-0.003,-0.001
396,-0.008,0,0,-0.008,-0.008,-0.002,-0.004,-0.001
397,-0.006,0.001,0,-0.007,-0.007,-0.001,-0.003,-0.001
398,-0.005,0.001,0.001,-0.007,-0.006,-0.002,-0.003,-0.001
399,-0.005,0,0.001,-0.007,-0.006,-0.002,-0.004,-0.001
400,-0.004,0.001,0.001,-0.005,-0.004,-0.001,-0.003,0
401,-0.002,0.001,0.002,-0.004,-0.003,0.001,-0.001,0.002
402,-0.001,0.003,0.003,-0.003,-0.002,0.002,0,0.003
403,-0.004,0.003,0.002,-0.005,-0.004,0.002,0,0.002
404,-0.007,0.002,0.001,-0.007,-0.006,0,-0.001,0.001
405,-0.008,0.001,0.001,-0.008,-0.006,0,-0.002,0.001
406,-0.007,0.002,0.001,-0.008,-0.006,0.001,-0.001,0.001
407,-0.005,0.002,0.002,-0.005,-0.005,0.001,0,0.002
408,-0.005,0.002,0.002,-0.005,-0.005,0.001,0,0.001
409,-0.005,0.001,0.002,-0.006,-0.006,0,-0.001,0.001
410,-0.004,0.002,0.003,-0.006,-0.005,0.001,0,0.003
411,-0.004,0.004,0.004,-0.005,-0.004,0.003,0.002,0.004
412,-0.005,0.003,0.004,-0.005,-0.004,0.003,0.002,0.003
413,-0.004,0.003,0.003,-0.005,-0.004,0.002,0.001,0.002
414,-0.002,0.003,0.003,-0.003,-0.002,0.003,0.001,0.003
415,0,0.003,0.004,-0.002,-0.001,0.003,0.001,0.003
416,0,0.004,0.004,-0.003,-0.001,0.003,0.001,0.004
417,-0.002,0.002,0.002,-0.006,-0.004,0.001,-0.001,0.001
418,-0.005,0,0,-0.009,-0.007,-0.002,-0.003,-0.001
419,-0.007,-0.001,0,-0.009,-0.008,-0.002,-0.002,-0.001
420,-0.006,0,0.001,-0.008,-0.008,-0.001,-0.002,0
421,-0.006,0,0.001,-0.007,-0.006,-0.001,-0.003,0.001
422,-0.005,-0.001,0,-0.006,-0.005,-0.001,-0.003,0
423,-0.006,-0.001,-0.001,-0.007,-0.006,-0.002,-0.003,-0.001
424,-0.007,-0.001,-0.001,-0.008,-0.007,-0.002,-0.003,-0.001
425,-0.009,-0.001,-0.001,-0.008,-0.008,-0.002,-0.003,-0.002
426,-0.009,-0.002,-0.001,-0.008,-0.009,-0.002,-0.004,-0.002
427,-0.009,-0.002,-0.001,-0.009,-0.009,-0.003,-0.004,-0.002
428,-0.007,-0.002,-0.001,-0.01,-0.01,-0.003,-0.004,-0.002
429,-0.004,-0.001,0.001,-0.009,-0.009,-0.001,-0.003,0
430,-0.003,0.002,0.003,-0.007,-0.006,0.002,-0.001,0.002
431,-0.003,0.003,0.004,-0.004,-0.005,0.003,0,0.003
432,-0.004,0.003,0.003,-0.006,-0.006,0.002,0,0.002
433,-0.004,0.001,0.002,-0.007,-0.006,0.001,-0.001,0
434,-0.003,0.001,0.002,-0.007,-0.005,0.001,-0.002,0
435,-0.003,0.001,0.002,-0.007,-0.006,0,-0.002,0
436,-0.005,0,0,-0.008,-0.007,-0.002,-0.003,0
437,-0.006,0,0,-0.007,-0.007,-0.002,-0.003,0
438,-0.005,-0.001,0,-0.007,-0.007,-0.002,-0.003,-0.001
439,-0.004,-0.001,-0.001,-0.007,-0.007,-0.002,-0.004,-0.001
440,-0.004,-0.001,0,-0.008,-0.008,-0.002,-0.003,0
441,-0.007,-0.002,-0.001,-0.009,-0.011,-0.003,-0.004,-0.002
442,-0.009,-0.003,-0.001,-0.01,-0.012,-0.003,-0.004,-0.002
443,-0.009,-0.003,-0.001,-0.01,-0.012,-0.002,-0.005,-0.003
444,-0.007,-0.002,0,-0.009,-0.009,-0.001,-0.004,0
445,-0.006,-0.002,0,-0.009,-0.007,-0.001,-0.004,0.001
446,-0.006,-0.002,0,-0.009,-0.007,-0.002,-0.004,0
447,-0.006,-0.002,0,-0.009,-0.008,-0.002,-0.004,-0.002
448,-0.004,0,0.001,-0.007,-0.006,-0.001,-0.002,-0.001
449,-0.003,0.001,0.002,-0.006,-0.005,0.001,0,0.001
450,-0.002,0.001,0.002,-0.006,-0.006,0.001,0,0.001
451,-0.004,0,0,-0.006,-0.007,0,-0.002,0
452,-0.005,0,0,-0.006,-0.006,0,-0.004,0
453,-0.006,0,0,-0.005,-0.005,0.001,-0.004,0
454,-0.006,-0.001,0,-0.006,-0.006,0,-0.004,0
455,-0.008,-0.002,-0.001,-0.008,-0.008,-0.001,-0.003,-0.002
456,-0.009,-0.003,-0.002,-0.01,-0.01,-0.003,-0.004,-0.004
457,-0.009,-0.002,-0.002,-0.01,-0.011,-0.004,-0.004,-0.005
458,-0.008,-0.002,-0.003,-0.008,-0.009,-0.004,-0.005,-0.005
459,-0.005,-0.003,-0.003,-0.007,-0.006,-0.004,-0.005,-0.004
460,-0.005,-0.004,-0.004,-0.007,-0.006,-0.004,-0.006,-0.004
461,-0.007,-0.005,-0.004,-0.009,-0.008,-0.005,-0.007,-0.005
462,-0.01,-0.004,-0.004,-0.01,-0.009,-0.005,-0.008,-0.006
463,-0.011,-0.004,-0.004,-0.011,-0.01,-0.005,-0.008,-0.007
464,-0.008,-0.003,-0.002,-0.011,-0.009,-0.003,-0.006,-0.005
465,-0.008,-0.001,0,-0.01,-0.009,0,-0.003,-0.002
466,-0.01,0,0.001,-0.009,-0.01,0.001,-0.002,0
467,-0.012,-0.002,-0.002,-0.01,-0.012,-0.002,-0.005,-0.003
468,-0.014,-0.004,-0.005,-0.012,-0.014,-0.006,-0.008,-0.006
469,-0.014,-0.007,-0.008,-0.015,-0.016,-0.008,-0.009,-0.007
470,-0.013,-0.006,-0.006,-0.014,-0.015,-0.007,-0.007,-0.005
471,-0.011,-0.005,-0.004,-0.012,-0.014,-0.005,-0.005,-0.003
472,-0.009,-0.003,-0.002,-0.008,-0.011,-0.002,-0.002,-0.002
473,-0.008,-0.002,-0.001,-0.007,-0.009,-0.002,-0.003,-0.003
474,-0.008,-0.002,-0.001,-0.007,-0.008,-0.002,-0.004,-0.002
475,-0.007,-0.001,-0.001,-0.008,-0.008,-0.002,-0.005,-0.003
476,-0.009,-0.003,-0.003,-0.01,-0.01,-0.005,-0.006,-0.004
477,-0.011,-0.004,-0.005,-0.012,-0.012,-0.006,-0.006,-0.006
478,-0.012,-0.004,-0.005,-0.013,-0.012,-0.006,-0.006,-0.005
479,-0.01,-0.003,-0.003,-0.01,-0.01,-0.003,-0.005,-0.003
480,-0.01,-0.004,-0.003,-0.01,-0.01,-0.005,-0.007,-0.005
481,-0.011,-0.006,-0.005,-0.01,-0.012,-0.008,-0.009,-0.007
482,-0.012,-0.007,-0.006,-0.01,-0.012,-0.008,-0.009,-0.008
483,-0.011,-0.007,-0.006,-0.009,-0.011,-0.007,-0.009,-0.007
484,-0.009,-0.007,-0.005,-0.009,-0.01,-0.006,-0.008,-0.006
485,-0.011,-0.006,-0.006,-0.011,-0.011,-0.006,-0.008,-0.006
486,-0.012,-0.006,-0.006,-0.013,-0.012,-0.006,-0.008,-0.005
487,-0.015,-0.007,-0.007,-0.015,-0.014,-0.007,-0.008,-0.006
488,-0.017,-0.01,-0.009,-0.018,-0.018,-0.01,-0.011,-0.01
489,-0.018,-0.011,-0.01,-0.019,-0.019,-0.011,-0.013,-0.011
490,-0.017,-0.01,-0.009,-0.017,-0.017,-0.01,-0.013,-0.01
491,-0.014,-0.009,-0.008,-0.016,-0.015,-0.01,-0.012,-0.009
492,-0.016,-0.012,-0.011,-0.016,-0.016,-0.012,-0.014,-0.011
493,-0.019,-0.016,-0.014,-0.02,-0.02,-0.015,-0.017,-0.014
494,-0.021,-0.017,-0.014,-0.021,-0.021,-0.015,-0.018,-0.015
495,-0.019,-0.013,-0.012,-0.018,-0.019,-0.013,-0.015,-0.013
496,-0.014,-0.008,-0.009,-0.015,-0.014,-0.009,-0.011,-0.009
497,-0.011,-0.007,-0.008,-0.013,-0.013,-0.008,-0.01,-0.009
498,-0.013,-0.009,-0.009,-0.015,-0.015,-0.01,-0.012,-0.011
499,-0.016,-0.013,-0.012,-0.017,-0.018,-0.012,-0.014,-0.013
500,-0.019,-0.014,-0.013,-0.019,-0.021,-0.013,-0.016,-0.014
501,-0.019,-0.012,-0.011,-0.019,-0.02,-0.012,-0.014,-0.012
502,-0.019,-0.01,-0.01,-0.019,-0.019,-0.01,-0.013,-0.011
503,-0.021,-0.009,-0.01,-0.02,-0.019,-0.01,-0.012,-0.01
504,-0.022,-0.011,-0.011,-0.021,-0.021,-0.012,-0.013,-0.011
505,-0.019,-0.011,-0.011,-0.02,-0.019,-0.013,-0.014,-0.012
506,-0.014,-0.009,-0.01,-0.017,-0.015,-0.011,-0.014,-0.011
507,-0.013,-0.009,-0.01,-0.016,-0.014,-0.01,-0.013,-0.011
508,-0.014,-0.008,-0.009,-0.016,-0.015,-0.01,-0.012,-0.01
509,-0.018,-0.009,-0.009,-0.017,-0.018,-0.011,-0.012,-0.01
510,-0.021,-0.01,-0.01,-0.02,-0.021,-0.011,-0.013,-0.011
511,-0.025,-0.014,-0.013,-0.024,-0.024,-0.014,-0.016,-0.014
512,-0.027,-0.016,-0.015,-0.025,-0.026,-0.016,-0.017,-0.016
513,-0.025,-0.015,-0.015,-0.023,-0.024,-0.017,-0.018,-0.017
514,-0.026,-0.015,-0.016,-0.024,-0.025,-0.017,-0.018,-0.017
515,-0.028,-0.016,-0.017,-0.026,-0.028,-0.019,-0.02,-0.018
516,-0.029,-0.018,-0.019,-0.028,-0.029,-0.02,-0.021,-0.02
517,-0.025,-0.017,-0.017,-0.025,-0.025,-0.018,-0.019,-0.017
518,-0.021,-0.015,-0.014,-0.021,-0.021,-0.014,-0.017,-0.014
519,-0.02,-0.014,-0.013,-0.019,-0.019,-0.013,-0.015,-0.013
520,-0.02,-0.014,-0.014,-0.02,-0.02,-0.015,-0.016,-0.015
521,-0.02,-0.015,-0.016,-0.022,-0.021,-0.016,-0.017,-0.017
522,-0.02,-0.016,-0.017,-0.024,-0.023,-0.017,-0.018,-0.018
523,-0.023,-0.019,-0.019,-0.027,-0.028,-0.019,-0.02,-0.019
524,-0.025,-0.019,-0.019,-0.027,-0.029,-0.02,-0.022,-0.02
525,-0.024,-0.017,-0.017,-0.025,-0.026,-0.018,-0.02,-0.018
526,-0.021,-0.015,-0.014,-0.021,-0.022,-0.015,-0.017,-0.016
527,-0.021,-0.016,-0.014,-0.019,-0.019,-0.015,-0.016,-0.014
528,-0.02,-0.015,-0.014,-0.02,-0.02,-0.014,-0.016,-0.014
529,-0.023,-0.018,-0.017,-0.024,-0.024,-0.018,-0.02,-0.018
530,-0.026,-0.02,-0.021,-0.029,-0.029,-0.022,-0.024,-0.023
531,-0.027,-0.022,-0.023,-0.03,-0.03,-0.024,-0.026,-0.025
532,-0.025,-0.019,-0.02,-0.026,-0.026,-0.021,-0.023,-0.022
533,-0.023,-0.017,-0.017,-0.023,-0.022,-0.017,-0.019,-0.017
534,-0.023,-0.018,-0.017,-0.024,-0.023,-0.018,-0.019,-0.018
535,-0.024,-0.019,-0.017,-0.024,-0.026,-0.019,-0.02,-0.02
536,-0.025,-0.02,-0.019,-0.026,-0.028,-0.021,-0.021,-0.022
537,-0.027,-0.022,-0.021,-0.028,-0.031,-0.023,-0.023,-0.023
538,-0.027,-0.021,-0.022,-0.028,-0.03,-0.023,-0.023,-0.023
539,-0.027,-0.02,-0.021,-0.026,-0.027,-0.021,-0.023,-0.021
540,-0.024,-0.016,-0.016,-0.024,-0.023,-0.017,-0.019,-0.018
541,-0.022,-0.014,-0.014,-0.023,-0.021,-0.015,-0.016,-0.015
542,-0.022,-0.016,-0.016,-0.023,-0.023,-0.017,-0.017,-0.017
543,-0.026,-0.019,-0.019,-0.025,-0.027,-0.021,-0.02,-0.02
544,-0.029,-0.022,-0.022,-0.027,-0.03,-0.023,-0.023,-0.023
545,-0.029,-0.02,-0.021,-0.028,-0.03,-0.022,-0.022,-0.022
546,-0.028,-0.02,-0.02,-0.027,-0.029,-0.022,-0.02,-0.021
547,-0.029,-0.02,-0.02,-0.028,-0.029,-0.022,-0.021,-0.021
548,-0.028,-0.021,-0.021,-0.029,-0.03,-0.022,-0.021,-0.022
549,-0.028,-0.022,-0.022,-0.03,-0.03,-0.023,-0.023,-0.022
550,-0.028,-0.022,-0.022,-0.029,-0.03,-0.023,-0.024,-0.023
551,-0.026,-0.02,-0.021,-0.026,-0.028,-0.022,-0.023,-0.022
552,-0.022,-0.018,-0.019,-0.024,-0.024,-0.02,-0.02,-0.02
553,-0.019,-0.016,-0.017,-0.023,-0.024,-0.017,-0.019,-0.019
554,-0.021,-0.018,-0.019,-0.025,-0.026,-0.019,-0.021,-0.022
555,-0.022,-0.02,-0.021,-0.026,-0.027,-0.021,-0.023,-0.023
556,-0.024,-0.021,-0.021,-0.026,-0.027,-0.021,-0.023,-0.021
557,-0.025,-0.02,-0.02,-0.026,-0.027,-0.02,-0.021,-0.02
558,-0.026,-0.018,-0.018,-0.025,-0.026,-0.019,-0.02,-0.019
559,-0.026,-0.02,-0.02,-0.026,-0.027,-0.021,-0.022,-0.021
560,-0.024,-0.02,-0.021,-0.025,-0.025,-0.022,-0.022,-0.022
561,-0.025,-0.02,-0.02,-0.026,-0.025,-0.022,-0.021,-0.021
562,-0.026,-0.02,-0.02,-0.026,-0.027,-0.021,-0.02,-0.02
563,-0.026,-0.021,-0.022,-0.027,-0.028,-0.021,-0.022,-0.02
564,-0.029,-0.023,-0.024,-0.029,-0.031,-0.023,-0.025,-0.023
565,-0.03,-0.022,-0.023,-0.031,-0.03,-0.022,-0.026,-0.023
566,-0.029,-0.021,-0.022,-0.03,-0.029,-0.021,-0.025,-0.02
567,-0.027,-0.02,-0.02,-0.029,-0.028,-0.02,-0.023,-0.019
568,-0.025,-0.02,-0.019,-0.027,-0.028,-0.021,-0.022,-0.019
569,-0.027,-0.021,-0.019,-0.026,-0.028,-0.021,-0.02,-0.019
570,-0.027,-0.021,-0.02,-0.027,-0.027,-0.021,-0.022,-0.019
571,-0.025,-0.019,-0.018,-0.025,-0.025,-0.019,-0.021,-0.018
572,-0.024,-0.017,-0.017,-0.025,-0.025,-0.018,-0.021,-0.017
573,-0.03,-0.021,-0.02,-0.028,-0.029,-0.021,-0.022,-0.021
574,-0.034,-0.022,-0.022,-0.031,-0.033,-0.023,-0.025,-0.023
575,-0.038,-0.025,-0.025,-0.035,-0.036,-0.026,-0.027,-0.025
576,-0.035,-0.024,-0.023,-0.033,-0.035,-0.026,-0.026,-0.025
577,-0.03,-0.023,-0.021,-0.031,-0.031,-0.024,-0.025,-0.023
578,-0.025,-0.02,-0.019,-0.028,-0.027,-0.021,-0.022,-0.021
579,-0.02,-0.016,-0.016,-0.022,-0.022,-0.017,-0.019,-0.017
580,-0.017,-0.015,-0.014,-0.019,-0.02,-0.016,-0.017,-0.016
581,-0.017,-0.015,-0.015,-0.018,-0.019,-0.016,-0.018,-0.015
582,-0.022,-0.015,-0.015,-0.02,-0.019,-0.016,-0.017,-0.016
583,-0.026,-0.018,-0.017,-0.024,-0.023,-0.017,-0.019,-0.017
584,-0.031,-0.02,-0.019,-0.029,-0.03,-0.021,-0.023,-0.02
585,-0.032,-0.017,-0.018,-0.029,-0.031,-0.019,-0.022,-0.018
586,-0.029,-0.013,-0.015,-0.026,-0.028,-0.014,-0.018,-0.014
587,-0.021,-0.008,-0.009,-0.02,-0.02,-0.008,-0.011,-0.008
588,-0.015,-0.008,-0.008,-0.018,-0.018,-0.008,-0.011,-0.008
589,-0.015,-0.011,-0.011,-0.019,-0.019,-0.012,-0.014,-0.013
590,-0.013,-0.012,-0.012,-0.018,-0.018,-0.013,-0.015,-0.014
591,-0.011,-0.01,-0.01,-0.015,-0.016,-0.013,-0.014,-0.012
592,-0.011,-0.01,-0.01,-0.014,-0.016,-0.013,-0.014,-0.011
593,-0.017,-0.014,-0.012,-0.018,-0.02,-0.015,-0.016,-0.014
594,-0.02,-0.016,-0.013,-0.021,-0.02,-0.015,-0.016,-0.015
595,-0.018,-0.013,-0.01,-0.02,-0.017,-0.011,-0.013,-0.013
596,-0.013,-0.008,-0.006,-0.018,-0.015,-0.009,-0.011,-0.01
597,-0.016,-0.008,-0.009,-0.02,-0.02,-0.011,-0.015,-0.013
598,-0.021,-0.011,-0.013,-0.022,-0.025,-0.014,-0.019,-0.016
599,-0.023,-0.013,-0.014,-0.021,-0.024,-0.015,-0.02,-0.016
600,-0.023,-0.013,-0.014,-0.02,-0.022,-0.014,-0.017,-0.015
601,-0.023,-0.013,-0.015,-0.02,-0.02,-0.015,-0.015,-0.015
602,-0.022,-0.013,-0.015,-0.02,-0.02,-0.015,-0.015,-0.016
603,-0.019,-0.011,-0.012,-0.019,-0.019,-0.014,-0.014,-0.014
604,-0.015,-0.008,-0.008,-0.019,-0.018,-0.01,-0.013,-0.01
605,-0.013,-0.007,-0.008,-0.019,-0.017,-0.009,-0.013,-0.008
606,-0.015,-0.008,-0.009,-0.019,-0.016,-0.01,-0.014,-0.008
607,-0.018,-0.008,-0.009,-0.017,-0.017,-0.01,-0.011,-0.008
608,-0.016,-0.005,-0.006,-0.014,-0.015,-0.008,-0.007,-0.005
609,-0.011,-0.004,-0.004,-0.012,-0.013,-0.007,-0.005,-0.004
610,-0.006,-0.004,-0.005,-0.013,-0.011,-0.006,-0.006,-0.005
611,-0.01,-0.008,-0.008,-0.016,-0.015,-0.008,-0.01,-0.008
612,-0.016,-0.011,-0.01,-0.019,-0.019,-0.01,-0.012,-0.01
613,-0.018,-0.009,-0.008,-0.017,-0.018,-0.008,-0.011,-0.009
614,-0.013,-0.003,-0.002,-0.012,-0.013,-0.004,-0.006,-0.005
615,-0.007,0,0.001,-0.008,-0.008,-0.002,-0.003,-0.003
616,-0.004,0.001,0.003,-0.007,-0.007,-0.001,-0.001,0.001
617,-0.003,0.002,0.003,-0.007,-0.008,0,-0.002,0.001
618,-0.003,0.002,0.002,-0.005,-0.006,0.001,-0.002,0.001
619,-0.006,0.001,0.001,-0.003,-0.003,0.001,-0.003,0
620,-0.005,0.002,0.003,-0.001,-0.002,0.002,-0.001,0.001
621,-0.003,0.005,0.005,-0.001,-0.003,0.003,0.002,0.004
622,0.001,0.008,0.007,-0.001,-0.003,0.005,0.003,0.005
623,0.002,0.008,0.007,0,-0.002,0.005,0.001,0.005
624,0,0.005,0.005,-0.004,-0.004,0.002,-0.003,0.003
625,-0.002,0.003,0.003,-0.007,-0.007,0,-0.003,0.001
626,-0.001,0.001,0.002,-0.01,-0.01,-0.002,-0.003,-0.001
627,-0.001,-0.002,0,-0.009,-0.01,-0.003,-0.006,-0.003
628,-0.003,-0.004,-0.002,-0.008,-0.009,-0.005,-0.006,-0.003
629,-0.007,-0.003,-0.002,-0.009,-0.01,-0.005,-0.005,-0.003
630,-0.009,-0.003,-0.003,-0.01,-0.009,-0.004,-0.006,-0.003
631,-0.008,-0.002,-0.002,-0.01,-0.007,-0.004,-0.005,-0.004
632,-0.005,-0.001,0,-0.007,-0.005,-0.003,-0.002,-0.003
633,-0.003,0.001,0.001,-0.007,-0.004,-0.002,-0.001,-0.001
634,-0.003,0.001,0.001,-0.007,-0.006,0,-0.003,0
635,-0.004,0.001,0.001,-0.007,-0.007,0,-0.002,0.001
636,-0.004,0.001,0.002,-0.004,-0.005,0.001,0.001,0.002
637,-0.003,0,0.002,-0.001,-0.004,0.001,0.002,0.002
638,-0.005,0,0.003,-0.001,-0.002,0,0.001,0.001
639,-0.006,0,0.003,-0.002,-0.001,0.001,0.002,0.003
640,-0.006,0.002,0.005,-0.004,-0.004,0.003,0.003,0.006
641,-0.007,0.003,0.004,-0.006,-0.007,0.003,0.001,0.005
642,-0.006,0.004,0.005,-0.007,-0.008,0.003,-0.001,0.003
643,-0.005,0.004,0.004,-0.008,-0.008,0.003,-0.003,0.003
644,-0.007,0.002,0.003,-0.01,-0.01,0.003,-0.003,0.004
645,-0.008,-0.001,0,-0.012,-0.011,0,-0.002,0.002
646,-0.006,-0.003,-0.002,-0.01,-0.01,-0.002,-0.004,-0.001
647,-0.003,-0.003,-0.003,-0.007,-0.006,-0.001,-0.004,-0.001
648,0,0,-0.001,-0.005,-0.003,0.001,-0.002,0.001
649,0.001,0.004,0.003,-0.003,0,0.003,0.001,0.005
650,0,0.004,0.005,-0.002,0,0.004,0.002,0.005
651,-0.003,0.003,0.005,-0.004,-0.003,0.004,0,0.003
652,-0.004,0.003,0.005,-0.006,-0.004,0.004,-0.002,0.004
653,-0.001,0.005,0.006,-0.006,-0.001,0.005,-0.001,0.007
654,0.001,0.006,0.006,-0.002,0,0.006,0.001,0.007
655,-0.001,0.006,0.006,0,-0.002,0.006,0.003,0.007
656,-0.004,0.005,0.005,-0.001,-0.004,0.005,0.004,0.005
657,-0.004,0.002,0.002,-0.004,-0.006,0.002,0.002,0.003
658,0.001,0,0.002,-0.003,-0.002,0,0,0.001
659,0.007,0.003,0.006,0.004,0.006,0.004,0.003,0.005
660,0.007,0.007,0.009,0.007,0.009,0.007,0.004,0.007
661,0.003,0.007,0.008,0.003,0.006,0.006,0.002,0.006
662,-0.004,0.005,0.003,-0.005,-0.004,0.003,-0.001,0.003
663,-0.007,0.004,0.001,-0.007,-0.007,0.003,-0.001,0.003
664,-0.01,0.002,-0.001,-0.007,-0.01,0.002,-0.004,0
665,-0.012,-0.001,-0.002,-0.007,-0.009,0,-0.005,-0.001
666,-0.014,-0.003,-0.003,-0.009,-0.01,-0.004,-0.006,-0.002
667,-0.012,-0.003,-0.002,-0.011,-0.01,-0.004,-0.005,-0.002
668,-0.01,-0.004,-0.003,-0.013,-0.012,-0.004,-0.006,-0.003
669,-0.007,-0.004,-0.003,-0.012,-0.01,-0.002,-0.005,-0.002
670,-0.007,-0.002,0,-0.008,-0.007,0,-0.003,0.002
671,-0.006,-0.002,0.002,-0.006,-0.004,0.001,-0.001,0.003
672,-0.005,-0.001,0.003,-0.004,-0.002,0.003,-0.001,0.004
673,0.001,0.003,0.006,-0.001,0.003,0.006,0.001,0.007
674,0.005,0.004,0.007,-0.001,0.004,0.007,0.002,0.009
675,0.006,0.006,0.006,-0.001,0.005,0.006,0.003,0.008
676,0.005,0.005,0.006,0,0.003,0.005,0.003,0.006
677,0.005,0.005,0.005,0.001,0.001,0.004,0.002,0.005
678,0.003,0.002,0.002,-0.001,-0.002,0,-0.002,0
679,0.001,0.002,0.002,-0.002,-0.001,0,-0.003,0
680,0.001,0.006,0.006,-0.001,0.002,0.004,0,0.004
681,0.001,0.008,0.01,0,0.002,0.007,0.005,0.008
682,0.002,0.006,0.008,0.001,-0.001,0.006,0.003,0.006
683,0.003,0.003,0.005,-0.001,-0.002,0.004,0,0.004
684,0.003,0.003,0.004,-0.004,-0.002,0.004,0,0.005
685,0.003,0.007,0.006,-0.002,0.001,0.006,0.004,0.008
686,0.001,0.008,0.009,0.001,0.002,0.007,0.007,0.009
687,0,0.008,0.009,0.003,0.002,0.007,0.006,0.009
688,-0.001,0.006,0.006,0,0.001,0.005,0.004,0.007
689,-0.003,0.007,0.006,-0.003,-0.001,0.006,0.005,0.008
690,-0.007,0.005,0.005,-0.008,-0.005,0.004,0.004,0.006
691,-0.002,0.008,0.009,-0.004,0,0.007,0.006,0.008
692,0,0.007,0.009,-0.002,0.002,0.009,0.004,0.007
693,-0.002,0.007,0.008,-0.004,-0.001,0.01,0.003,0.007
694,-0.007,0.005,0.005,-0.008,-0.005,0.005,-0.001,0.005
695,-0.009,0.003,0.004,-0.01,-0.006,0,-0.001,0.003
696,-0.006,0.004,0.004,-0.006,-0.005,0,0,0.004
697,-0.006,0.003,0.003,-0.004,-0.004,0.001,0.001,0.003
698,-0.003,0.001,0.003,-0.001,-0.003,0.001,0,0.004
699,-0.004,-0.002,0.001,-0.002,-0.004,-0.001,-0.002,0.001
700,-0.005,-0.001,0.001,-0.003,-0.006,-0.001,-0.002,0.001
701,-0.006,0.001,0.001,-0.005,-0.007,0,-0.001,0.002
702,-0.008,0.003,0.003,-0.008,-0.007,0.003,0.001,0.004
703,-0.01,0.003,0.003,-0.008,-0.009,0.002,0.001,0.003
704,-0.01,0.002,0.003,-0.009,-0.009,0.001,0.001,0.002
705,-0.003,0.004,0.005,-0.002,-0.003,0.003,0.002,0.004
706,0.001,0.007,0.008,0.005,0.002,0.008,0.005,0.007
707,0.001,0.011,0.011,0.007,0.002,0.01,0.007,0.011
708,0,0.013,0.013,0.006,0.003,0.011,0.008,0.012
709,0.001,0.011,0.009,0.003,0.002,0.007,0.006,0.01
710,0.002,0.004,0.004,0.001,-0.001,0.004,0.002,0.005
711,-0.001,0,0,-0.002,-0.005,0.001,0.001,0.001
712,-0.003,0,0,-0.002,-0.004,0.001,-0.001,-0.001
713,-0.004,0.002,0.001,-0.002,-0.003,0.001,-0.001,0.001
714,-0.007,0.001,0.001,-0.004,-0.006,0,-0.003,0
715,-0.008,0,0.001,-0.008,-0.01,0,-0.003,0.001
716,-0.006,0.001,0.002,-0.008,-0.011,0.002,-0.002,0.002
717,-0.002,0.006,0.006,-0.005,-0.006,0.005,0.001,0.005
718,0.001,0.007,0.007,-0.001,-0.003,0.005,0,0.005
719,0.002,0.005,0.004,-0.002,-0.002,0.002,-0.001,0.003
720,0.001,0,0.001,-0.003,-0.003,-0.001,-0.005,-0.002
721,-0.001,0.001,0,-0.006,-0.003,-0.002,-0.005,-0.002
722,-0.003,0.002,0,-0.009,-0.006,-0.001,-0.005,-0.001
723,-0.004,0,-0.001,-0.013,-0.009,-0.001,-0.005,-0.001
724,-0.007,-0.002,-0.001,-0.014,-0.011,-0.004,-0.005,-0.003
725,-0.01,-0.001,-0.001,-0.014,-0.01,-0.003,-0.004,-0.003
726,-0.012,0.001,-0.001,-0.012,-0.008,0,-0.002,-0.001
727,-0.013,0,-0.002,-0.009,-0.008,0,-0.003,-0.001
728,-0.015,-0.004,-0.004,-0.012,-0.012,-0.004,-0.007,-0.003
729,-0.016,-0.008,-0.007,-0.017,-0.016,-0.008,-0.009,-0.006
730,-0.016,-0.009,-0.007,-0.018,-0.016,-0.009,-0.01,-0.006
731,-0.014,-0.008,-0.006,-0.013,-0.012,-0.008,-0.009,-0.004
732,-0.014,-0.008,-0.008,-0.011,-0.009,-0.008,-0.01,-0.005
733,-0.015,-0.006,-0.007,-0.011,-0.01,-0.008,-0.009,-0.006
734,-0.014,-0.004,-0.005,-0.011,-0.011,-0.005,-0.008,-0.005
735,-0.013,-0.003,-0.004,-0.01,-0.013,-0.003,-0.008,-0.006
736,-0.014,-0.007,-0.007,-0.011,-0.016,-0.006,-0.009,-0.008
737,-0.014,-0.007,-0.007,-0.01,-0.014,-0.007,-0.009,-0.008
738,-0.014,-0.01,-0.006,-0.01,-0.012,-0.009,-0.011,-0.008
739,-0.012,-0.009,-0.006,-0.009,-0.012,-0.009,-0.01,-0.007
740,-0.014,-0.008,-0.006,-0.011,-0.015,-0.009,-0.009,-0.008
741,-0.019,-0.008,-0.009,-0.016,-0.02,-0.01,-0.011,-0.01
742,-0.02,-0.01,-0.01,-0.019,-0.02,-0.01,-0.013,-0.012
743,-0.015,-0.009,-0.009,-0.017,-0.016,-0.01,-0.012,-0.01
744,-0.012,-0.008,-0.008,-0.017,-0.016,-0.01,-0.011,-0.008
745,-0.013,-0.01,-0.01,-0.018,-0.018,-0.011,-0.011,-0.007
746,-0.017,-0.016,-0.014,-0.023,-0.022,-0.015,-0.012,-0.013
747,-0.019,-0.019,-0.016,-0.025,-0.023,-0.016,-0.014,-0.017
748,-0.015,-0.014,-0.011,-0.019,-0.018,-0.013,-0.013,-0.013
749,-0.005,-0.005,-0.004,-0.006,-0.005,-0.005,-0.005,-0.004
750,0,0,0,0,0,0,0,0
