,0,1,2,3,4
190,-0.072,-0.17,0.193,-0.184,-0.122
191,-0.058,-0.062,0.257,-0.253,-0.148
192,-0.07,-0.106,0.053,-0.205,0.021
193,0.014,-0.149,0.068,-0.359,0.161
194,0.085,-0.006,0.031,-0.488,0.233
195,0.092,0.06,-0.177,-0.418,0.319
196,-0.046,0.334,-0.062,-0.228,0.094
197,-0.15,0.213,-0.075,-0.118,-0.101
198,-0.176,-0.164,-0.256,-0.097,-0.385
199,-0.129,-0.288,-0.008,-0.115,-0.38
200,0.141,-0.051,0.057,-0.134,-0.195
201,0.389,0.22,0.27,-0.017,-0.129
202,0.447,0.336,0.354,-0.056,0.13
203,0.233,0.212,0.19,0.09,0.278
204,0.003,0.135,0.363,0.235,0.065
205,-0.026,0.092,0.31,0.249,-0.148
206,0.114,-0.002,0.203,0.237,-0.217
207,0.192,-0.032,0.005,0.178,0.171
208,0.147,0.083,0.153,0.234,0.476
209,0.085,0.038,0.387,0.313,0.255
210,0.146,0.034,0.281,0.334,0.162
211,0.101,0.18,-0.007,0.334,0.057
212,0.218,0.211,-0.211,0.414,0.237
213,0.019,0.357,-0.089,0.323,0.259
214,-0.048,0.409,0.184,0.35,0.188
215,0.027,0.476,0.318,0.296,0.276
216,0.185,0.595,0.351,0.472,0.309
217,0.42,0.557,0.378,0.545,0.34
218,0.473,0.684,0.427,0.622,0.341
219,0.69,0.8,0.454,0.666,0.443
220,0.842,0.714,0.534,0.732,0.484
221,0.849,0.739,0.737,0.97,0.461
222,0.714,0.743,0.779,1.036,0.709
223,0.668,0.843,1.096,1.064,0.926
224,0.717,1.019,1.203,1.032,1.076
225,0.786,1.095,1.162,1.159,1.198
226,0.744,1.221,1.19,1.34,1.141
227,1.011,1.302,1.177,1.571,1.372
228,1.263,1.42,1.798,1.819,1.554
229,1.263,1.556,2.167,1.99,1.68
230,1.124,1.671,2.169,2.006,1.808
231,0.773,1.359,1.932,1.916,1.791
232,0.551,1.231,1.588,1.856,1.754
233,0.549,1.118,1.593,1.744,1.681
234,0.483,0.769,1.536,1.59,1.549
235,0.529,0.801,1.455,1.518,1.495
236,0.435,0.576,1.414,1.431,1.384
237,0.233,0.57,1.354,1.568,1.381
238,0.251,0.481,1.358,1.54,1.272
239,0.324,0.319,1.159,1.471,1.267
240,0.485,0.365,1.266,1.513,1.233
241,0.448,0.459,1.344,1.615,1.336
242,0.323,0.632,1.702,1.792,1.474
243,0.083,0.749,1.796,1.759,1.405
244,0.058,0.778,1.598,1.614,1.424
245,0.129,0.458,1.414,1.519,1.273
246,0.129,0.596,1.174,1.619,1.354
247,0.162,0.879,1.299,1.677,1.415
248,0.105,0.902,1.359,1.69,1.267
249,0.123,0.938,1.639,1.593,1.458
250,0.122,0.627,1.665,1.458,1.486
251,0.029,0.575,1.556,1.435,1.521
252,0.238,0.634,1.49,1.531,1.507
253,0.381,0.524,1.321,1.656,1.353
254,0.513,0.672,1.374,1.703,1.385
255,0.594,0.852,1.345,1.64,1.35
256,0.523,1.054,1.314,1.601,1.375
257,0.795,1.176,1.496,1.649,1.402
258,1.158,1.256,1.602,1.679,1.488
259,1.411,1.432,1.668,1.705,1.594
260,1.466,1.615,1.613,1.632,1.624
261,1.432,1.672,1.37,1.452,1.502
262,1.471,1.542,1.168,1.239,1.257
263,1.387,1.292,0.926,0.996,1.015
264,1.211,1.104,0.742,0.797,0.811
265,0.976,0.961,0.615,0.646,0.66
266,0.866,0.835,0.507,0.539,0.549
267,0.774,0.72,0.43,0.46,0.467
268,0.705,0.656,0.377,0.404,0.411
269,0.658,0.606,0.337,0.363,0.37
270,0.63,0.581,0.315,0.337,0.343
271,0.622,0.575,0.302,0.323,0.326
272,0.626,0.581,0.291,0.31,0.312
273,0.632,0.592,0.28,0.299,0.301
274,0.633,0.589,0.268,0.289,0.291
275,0.627,0.581,0.259,0.278,0.281
276,0.618,0.573,0.246,0.266,0.268
277,0.611,0.568,0.235,0.257,0.257
278,0.617,0.571,0.233,0.255,0.253
279,0.631,0.583,0.241,0.261,0.26
280,0.651,0.6,0.254,0.273,0.272
281,0.666,0.618,0.264,0.285,0.283
282,0.664,0.617,0.263,0.286,0.284
283,0.642,0.592,0.248,0.269,0.268
284,0.597,0.548,0.223,0.239,0.24
285,0.549,0.505,0.195,0.21,0.21
286,0.513,0.469,0.171,0.187,0.186
287,0.49,0.446,0.159,0.175,0.174
288,0.484,0.441,0.161,0.177,0.175
289,0.499,0.455,0.175,0.192,0.189
290,0.51,0.469,0.191,0.209,0.206
291,0.49,0.451,0.185,0.204,0.202
292,0.423,0.391,0.155,0.172,0.169
293,0.332,0.308,0.111,0.127,0.122
294,0.26,0.238,0.077,0.091,0.084
295,0.205,0.185,0.056,0.071,0.061
296,0.166,0.148,0.044,0.057,0.048
297,0.132,0.118,0.036,0.048,0.04
298,0.106,0.096,0.03,0.042,0.034
299,0.087,0.079,0.028,0.039,0.031
300,0.073,0.067,0.026,0.038,0.029
301,0.062,0.056,0.022,0.034,0.027
302,0.055,0.048,0.019,0.029,0.024
303,0.05,0.042,0.016,0.026,0.021
304,0.043,0.038,0.014,0.024,0.018
305,0.037,0.035,0.014,0.024,0.014
306,0.035,0.03,0.015,0.025,0.014
307,0.036,0.028,0.015,0.026,0.016
308,0.037,0.028,0.015,0.026,0.018
309,0.036,0.03,0.013,0.026,0.016
310,0.034,0.031,0.012,0.023,0.014
311,0.033,0.031,0.012,0.021,0.014
312,0.032,0.031,0.012,0.021,0.015
313,0.032,0.03,0.014,0.022,0.015
314,0.031,0.03,0.013,0.023,0.014
315,0.031,0.029,0.011,0.024,0.014
316,0.031,0.028,0.01,0.024,0.015
317,0.032,0.028,0.012,0.024,0.016
318,0.034,0.028,0.013,0.024,0.017
319,0.031,0.028,0.012,0.023,0.016
320,0.029,0.026,0.009,0.023,0.015
321,0.028,0.026,0.009,0.023,0.013
322,0.028,0.026,0.011,0.021,0.013
323,0.029,0.029,0.011,0.021,0.016
324,0.029,0.029,0.01,0.021,0.014
325,0.03,0.028,0.01,0.021,0.013
326,0.031,0.027,0.012,0.021,0.013
327,0.031,0.026,0.014,0.022,0.016
328,0.03,0.026,0.013,0.025,0.017
329,0.028,0.022,0.01,0.022,0.013
330,0.025,0.021,0.009,0.02,0.011
331,0.026,0.024,0.009,0.018,0.012
332,0.025,0.022,0.008,0.018,0.011
333,0.029,0.024,0.008,0.019,0.01
334,0.03,0.025,0.009,0.02,0.009
335,0.029,0.028,0.01,0.02,0.011
336,0.028,0.027,0.012,0.02,0.013
337,0.023,0.023,0.009,0.018,0.011
338,0.024,0.02,0.009,0.017,0.01
339,0.026,0.022,0.009,0.019,0.011
340,0.025,0.025,0.009,0.019,0.012
341,0.025,0.025,0.009,0.018,0.013
342,0.024,0.025,0.008,0.017,0.012
343,0.021,0.021,0.007,0.016,0.009
344,0.021,0.018,0.007,0.017,0.009
345,0.02,0.017,0.007,0.017,0.009
346,0.02,0.017,0.007,0.017,0.008
347,0.02,0.018,0.007,0.016,0.007
348,0.02,0.019,0.008,0.015,0.006
349,0.021,0.02,0.008,0.016,0.007
350,0.023,0.019,0.009,0.017,0.011
351,0.02,0.016,0.006,0.016,0.01
352,0.021,0.017,0.007,0.017,0.01
353,0.022,0.02,0.008,0.019,0.011
354,0.022,0.023,0.01,0.019,0.011
355,0.022,0.02,0.011,0.018,0.011
356,0.021,0.017,0.008,0.017,0.009
357,0.022,0.015,0.008,0.018,0.009
358,0.021,0.015,0.007,0.018,0.008
359,0.019,0.015,0.007,0.018,0.008
360,0.018,0.016,0.007,0.019,0.009
361,0.019,0.016,0.009,0.02,0.009
362,0.019,0.016,0.01,0.02,0.009
363,0.018,0.014,0.008,0.017,0.009
364,0.018,0.011,0.004,0.015,0.007
365,0.02,0.012,0.004,0.015,0.007
366,0.02,0.014,0.007,0.017,0.008
367,0.018,0.017,0.007,0.017,0.007
368,0.017,0.017,0.006,0.016,0.007
369,0.017,0.018,0.006,0.017,0.007
370,0.016,0.019,0.008,0.019,0.011
371,0.015,0.017,0.007,0.017,0.011
372,0.015,0.016,0.007,0.013,0.009
373,0.018,0.014,0.006,0.013,0.009
374,0.02,0.015,0.008,0.017,0.011
375,0.019,0.016,0.01,0.019,0.012
376,0.017,0.016,0.01,0.018,0.011
377,0.019,0.019,0.013,0.019,0.011
378,0.019,0.019,0.011,0.018,0.009
379,0.021,0.017,0.008,0.018,0.01
380,0.023,0.016,0.008,0.019,0.012
381,0.02,0.015,0.008,0.019,0.012
382,0.017,0.015,0.008,0.019,0.009
383,0.013,0.013,0.007,0.017,0.005
384,0.014,0.013,0.006,0.017,0.007
385,0.02,0.015,0.008,0.019,0.011
386,0.021,0.017,0.01,0.02,0.011
387,0.019,0.016,0.008,0.018,0.009
388,0.018,0.015,0.009,0.017,0.009
389,0.016,0.013,0.007,0.015,0.008
390,0.016,0.012,0.007,0.016,0.009
391,0.016,0.013,0.005,0.017,0.008
392,0.016,0.014,0.006,0.017,0.009
393,0.018,0.018,0.011,0.017,0.01
394,0.018,0.02,0.014,0.017,0.011
395,0.018,0.017,0.013,0.016,0.01
396,0.018,0.017,0.01,0.016,0.009
397,0.016,0.014,0.007,0.015,0.008
398,0.017,0.014,0.007,0.015,0.008
399,0.016,0.015,0.008,0.017,0.009
400,0.015,0.013,0.007,0.016,0.009
401,0.014,0.011,0.006,0.013,0.006
402,0.014,0.011,0.005,0.011,0.006
403,0.017,0.013,0.007,0.014,0.008
404,0.02,0.016,0.01,0.019,0.011
405,0.02,0.014,0.009,0.019,0.01
406,0.016,0.011,0.006,0.015,0.006
407,0.015,0.011,0.004,0.013,0.007
408,0.016,0.012,0.005,0.014,0.008
409,0.018,0.013,0.006,0.017,0.01
410,0.018,0.014,0.006,0.015,0.009
411,0.019,0.016,0.009,0.015,0.008
412,0.021,0.019,0.011,0.016,0.009
413,0.019,0.016,0.009,0.016,0.008
414,0.014,0.015,0.006,0.015,0.005
415,0.008,0.009,0.002,0.01,0.001
416,0.009,0.008,0.002,0.01,-0.001
417,0.013,0.01,0.004,0.011,0.002
418,0.015,0.016,0.008,0.012,0.005
419,0.018,0.024,0.012,0.015,0.009
420,0.014,0.02,0.01,0.013,0.007
421,0.014,0.015,0.005,0.01,0.004
422,0.015,0.011,0.004,0.009,0.004
423,0.016,0.012,0.005,0.01,0.006
424,0.018,0.015,0.007,0.013,0.01
425,0.017,0.012,0.006,0.014,0.009
426,0.018,0.013,0.008,0.016,0.01
427,0.02,0.015,0.01,0.018,0.01
428,0.019,0.014,0.008,0.019,0.01
429,0.017,0.013,0.005,0.016,0.009
430,0.015,0.008,0.002,0.013,0.006
431,0.014,0.009,0.003,0.013,0.007
432,0.016,0.01,0.007,0.015,0.009
433,0.022,0.015,0.012,0.019,0.014
434,0.022,0.017,0.012,0.019,0.013
435,0.02,0.017,0.009,0.016,0.01
436,0.015,0.015,0.004,0.013,0.008
437,0.012,0.012,0.003,0.012,0.006
438,0.013,0.013,0.003,0.013,0.006
439,0.013,0.013,0.003,0.013,0.004
440,0.016,0.016,0.006,0.014,0.006
441,0.018,0.019,0.009,0.014,0.007
442,0.02,0.022,0.012,0.015,0.009
443,0.019,0.02,0.012,0.015,0.011
444,0.014,0.016,0.011,0.013,0.011
445,0.01,0.011,0.007,0.012,0.008
446,0.01,0.009,0.003,0.01,0.004
447,0.014,0.007,0.002,0.01,0.004
448,0.015,0.008,0.003,0.011,0.006
449,0.017,0.011,0.004,0.012,0.009
450,0.016,0.012,0.007,0.014,0.01
451,0.013,0.012,0.006,0.013,0.009
452,0.012,0.008,0.003,0.01,0.008
453,0.013,0.009,0.003,0.009,0.006
454,0.016,0.012,0.007,0.013,0.008
455,0.018,0.015,0.011,0.014,0.007
456,0.015,0.011,0.007,0.014,0.007
457,0.008,0.001,-0.002,0.007,0.003
458,0.005,-0.003,-0.007,0.004,0
459,0.003,-0.002,-0.008,0.004,-0.001
460,0.007,0.001,-0.006,0.004,-0.001
461,0.011,0.005,-0.002,0.009,0.003
462,0.016,0.01,0.003,0.014,0.007
463,0.019,0.011,0.005,0.017,0.009
464,0.016,0.01,0.005,0.016,0.007
465,0.016,0.007,0.006,0.014,0.008
466,0.017,0.011,0.009,0.015,0.011
467,0.021,0.015,0.012,0.017,0.015
468,0.021,0.018,0.012,0.016,0.013
469,0.018,0.018,0.011,0.013,0.01
470,0.019,0.018,0.01,0.013,0.01
471,0.02,0.017,0.008,0.015,0.01
472,0.019,0.014,0.004,0.013,0.008
473,0.009,0.009,0,0.005,0
474,0.002,0.006,-0.004,-0.001,-0.006
475,0.001,0.005,-0.004,0,-0.007
476,0.005,0.006,-0.003,0.005,-0.003
477,0.005,0.006,-0.002,0.007,0
478,0.008,0.004,-0.003,0.007,0.001
479,0.014,0.006,0,0.008,0.004
480,0.017,0.011,0.004,0.007,0.005
481,0.015,0.013,0.005,0.004,0.001
482,0.01,0.008,0,0.002,-0.002
483,0.007,0.003,-0.005,0.001,-0.003
484,0.006,0.002,-0.005,0.002,-0.001
485,0.007,0.002,-0.004,0.001,-0.001
486,0.007,0.004,-0.003,0.002,-0.002
487,0.008,0.004,-0.004,0.003,-0.002
488,0.009,0.005,-0.003,0.004,-0.002
489,0.009,0.004,-0.003,0.005,-0.002
490,0.006,0,-0.006,0.003,-0.004
491,0.001,-0.005,-0.011,0,-0.008
492,-0.001,-0.007,-0.012,-0.003,-0.01
493,0.004,-0.004,-0.009,-0.001,-0.007
494,0.008,0.001,-0.003,0.003,-0.002
495,0.008,0.005,-0.001,0.003,-0.002
496,0.005,0.007,-0.002,0.002,-0.002
497,0,0.004,-0.006,-0.003,-0.006
498,-0.002,-0.001,-0.009,-0.005,-0.007
499,0.001,-0.003,-0.01,-0.004,-0.007
500,0.007,0.002,-0.007,-0.001,-0.005
501,0.005,0.003,-0.006,0,-0.005
502,0.004,0.002,-0.004,-0.001,-0.004
503,0.002,0.005,-0.002,-0.001,-0.002
504,0.003,0.002,-0.003,-0.001,-0.001
505,0.001,-0.001,-0.007,-0.001,-0.003
506,-0.002,-0.005,-0.011,-0.001,-0.006
507,0.001,-0.005,-0.011,-0.001,-0.006
508,0.001,-0.002,-0.009,-0.001,-0.004
509,0.002,-0.003,-0.009,-0.001,-0.003
510,-0.002,-0.002,-0.008,-0.003,-0.003
511,-0.004,-0.004,-0.009,-0.005,-0.005
512,-0.002,-0.005,-0.011,-0.006,-0.007
513,0.001,-0.006,-0.01,-0.005,-0.005
514,0.001,-0.007,-0.011,-0.006,-0.006
515,-0.002,-0.007,-0.012,-0.006,-0.008
516,-0.003,-0.008,-0.013,-0.005,-0.009
517,0.002,-0.003,-0.008,0,-0.004
518,0.006,0.002,-0.002,0,-0.002
519,0.003,0.001,-0.004,-0.004,-0.006
520,-0.001,-0.003,-0.008,-0.01,-0.011
521,-0.003,-0.004,-0.009,-0.01,-0.012
522,-0.001,0,-0.003,-0.003,-0.006
523,0.001,0.002,0.001,0.003,-0.001
524,-0.001,0.005,0,0.003,0.001
525,-0.001,0.004,0,-0.002,0
526,0,0.005,0,-0.004,0
527,0.002,0.004,-0.002,-0.004,-0.001
528,0.004,0.002,-0.004,-0.002,-0.002
529,0.002,0.001,-0.005,-0.004,-0.005
530,0,0,-0.008,-0.008,-0.006
531,-0.002,-0.002,-0.012,-0.011,-0.009
532,-0.001,-0.004,-0.011,-0.009,-0.008
533,0,-0.006,-0.009,-0.009,-0.008
534,0,-0.004,-0.007,-0.009,-0.006
535,0.001,-0.002,-0.005,-0.007,-0.004
536,0.002,0,-0.005,-0.006,-0.004
537,0.004,0,-0.006,-0.006,-0.005
538,0.003,0.001,-0.007,-0.007,-0.004
539,0.001,0.003,-0.006,-0.01,-0.005
540,0.001,0.004,-0.004,-0.007,-0.004
541,-0.002,0.001,-0.005,-0.009,-0.007
542,-0.005,-0.001,-0.007,-0.011,-0.009
543,-0.006,0,-0.007,-0.011,-0.01
544,-0.008,-0.002,-0.01,-0.013,-0.012
545,-0.006,-0.001,-0.01,-0.012,-0.01
546,-0.007,-0.003,-0.012,-0.011,-0.009
547,-0.009,-0.008,-0.015,-0.015,-0.012
548,-0.011,-0.01,-0.018,-0.016,-0.014
549,-0.012,-0.012,-0.018,-0.015,-0.015
550,-0.008,-0.006,-0.014,-0.01,-0.009
551,-0.002,-0.005,-0.011,-0.009,-0.005
552,-0.002,-0.004,-0.01,-0.01,-0.003
553,-0.006,0,-0.01,-0.01,-0.005
554,-0.008,0.002,-0.009,-0.011,-0.008
555,-0.005,0.001,-0.009,-0.01,-0.008
556,-0.003,0,-0.009,-0.009,-0.007
557,-0.002,0.002,-0.008,-0.009,-0.005
558,-0.006,0.001,-0.009,-0.012,-0.008
559,-0.004,0.001,-0.007,-0.012,-0.008
560,0.003,0.004,-0.001,-0.007,-0.003
561,0.004,0.006,0.001,-0.003,0.002
562,0.004,0.005,0,-0.004,0.002
563,0.001,0,-0.005,-0.01,-0.003
564,0,-0.002,-0.009,-0.012,-0.007
565,-0.002,-0.004,-0.012,-0.014,-0.009
566,-0.005,-0.003,-0.011,-0.014,-0.01
567,-0.005,-0.002,-0.011,-0.015,-0.011
568,-0.005,-0.002,-0.012,-0.013,-0.01
569,-0.006,-0.002,-0.012,-0.011,-0.011
570,-0.005,-0.002,-0.012,-0.009,-0.009
571,-0.002,-0.002,-0.01,-0.007,-0.008
572,0,-0.002,-0.007,-0.004,-0.004
573,-0.002,0.001,-0.004,-0.004,-0.002
574,-0.005,-0.002,-0.007,-0.008,-0.005
575,-0.006,-0.006,-0.011,-0.013,-0.011
576,-0.006,-0.006,-0.015,-0.015,-0.014
577,-0.006,-0.003,-0.014,-0.014,-0.013
578,-0.006,-0.003,-0.014,-0.013,-0.012
579,-0.004,-0.004,-0.011,-0.008,-0.011
580,-0.005,-0.004,-0.007,-0.007,-0.011
581,-0.006,-0.002,-0.008,-0.007,-0.009
582,-0.002,0.006,-0.006,-0.009,-0.009
583,0.002,0.006,-0.006,-0.007,-0.005
584,0.007,0.007,-0.001,-0.002,-0.002
585,0.011,0.013,0.006,0.002,0.004
586,0.011,0.016,0.005,0.001,0.005
587,0.006,0.014,0.003,-0.002,0.005
588,-0.001,0.006,-0.002,-0.002,0.003
589,0.002,0.005,0.001,0.003,0.004
590,0.006,0.001,-0.002,0.002,0.002
591,0.005,0.004,-0.004,0.001,0
592,-0.007,0.002,-0.012,-0.006,-0.006
593,-0.009,0.001,-0.014,-0.011,-0.008
594,-0.005,0.001,-0.013,-0.011,-0.008
595,0.004,0.006,-0.002,-0.004,0
596,0.015,0.019,0.01,0.009,0.009
597,0.017,0.023,0.011,0.008,0.009
598,0.013,0.018,0.005,0.003,0.003
599,0.006,0.014,-0.003,-0.003,-0.003
600,0.001,0.009,-0.002,-0.003,0
601,0.003,0.006,0,0.001,0.006
602,0.007,0.004,-0.001,0.005,0.004
603,0.01,0.006,-0.001,0.005,0.001
604,0.011,0.011,0,0.006,0.004
605,0.009,0.013,0,0.006,0.007
606,0.011,0.01,0,0.003,0.005
607,0.008,0.01,0.003,0.001,0.001
608,0.009,0.011,0.005,0.001,0.001
609,0.005,0.006,0.001,0.004,0.002
610,0.005,0.001,-0.004,0.003,0.003
611,0.009,0.003,-0.001,0.005,0.008
612,0.011,0.008,0.003,0.007,0.012
613,0.01,0.014,0.008,0.007,0.006
614,0.007,0.015,0.008,0.005,0.004
615,0.01,0.016,0.008,0.007,0.005
616,0.014,0.017,0.01,0.008,0.008
617,0.014,0.019,0.01,0.011,0.01
618,0.014,0.019,0.008,0.01,0.008
619,0.011,0.013,0.003,0.011,0.009
620,0.011,0.007,0,0.007,0.006
621,0.013,0.011,0.002,0.006,0.007
622,0.016,0.014,0.006,0.01,0.009
623,0.016,0.016,0.011,0.01,0.013
624,0.015,0.01,0.013,0.008,0.013
625,0.013,0.009,0.012,0.007,0.007
626,0.013,0.007,0.004,0.006,0.003
627,0.013,0.006,-0.003,0.006,0.004
628,0.012,0.005,-0.007,0.006,0.003
629,0.009,0.009,-0.005,0.002,0.002
630,0.008,0.012,0,0.001,0.002
631,0.012,0.012,0.006,0.004,0.008
632,0.014,0.014,0.008,0.011,0.01
633,0.014,0.018,0.011,0.016,0.011
634,0.016,0.027,0.014,0.018,0.014
635,0.023,0.029,0.016,0.014,0.013
636,0.026,0.027,0.019,0.013,0.012
637,0.021,0.024,0.014,0.014,0.012
638,0.013,0.018,0.005,0.014,0.014
639,0.012,0.014,0.004,0.016,0.015
640,0.024,0.022,0.012,0.024,0.019
641,0.04,0.034,0.022,0.03,0.025
642,0.04,0.045,0.027,0.026,0.024
643,0.032,0.044,0.027,0.022,0.018
644,0.02,0.039,0.023,0.017,0.012
645,0.018,0.027,0.014,0.012,0.012
646,0.012,0.015,0.007,0.006,0.01
647,0.012,0.012,0.005,0.004,0.008
648,0.018,0.019,0.006,0.007,0.008
649,0.025,0.02,0.009,0.011,0.011
650,0.026,0.016,0.011,0.011,0.012
651,0.023,0.014,0.01,0.011,0.013
652,0.02,0.013,0.009,0.012,0.012
653,0.014,0.012,0.006,0.009,0.007
654,0.009,0.008,0.005,0.007,0.002
655,0.009,0.008,0.004,0.004,0.004
656,0.008,0.003,0,0.002,0.005
657,0.004,-0.001,-0.006,0,0
658,0,-0.004,-0.007,-0.002,-0.007
659,0.001,-0.001,-0.001,0,-0.005
660,0.011,0.008,0.003,0.005,0.004
661,0.023,0.015,0.008,0.013,0.011
662,0.029,0.017,0.01,0.018,0.016
663,0.029,0.015,0.011,0.017,0.016
664,0.023,0.012,0.008,0.012,0.015
665,0.021,0.01,0.009,0.008,0.013
666,0.022,0.016,0.011,0.013,0.013
667,0.024,0.022,0.016,0.016,0.013
668,0.019,0.022,0.016,0.011,0.011
669,0.014,0.019,0.012,0.006,0.005
670,0.018,0.017,0.011,0.007,0.005
671,0.019,0.022,0.015,0.013,0.009
672,0.016,0.02,0.015,0.013,0.01
673,0.009,0.011,0.008,0.005,0.008
674,0.004,0.005,0.003,0,-0.002
675,0.003,0.007,0.002,0,-0.003
676,0.006,0.012,0.004,0.001,0.003
677,0.009,0.014,0.005,0.004,0.009
678,0.016,0.018,0.005,0.009,0.009
679,0.022,0.014,0.005,0.013,0.013
680,0.024,0.01,0.003,0.017,0.017
681,0.024,0.009,0.002,0.018,0.019
682,0.02,0.013,0.002,0.018,0.017
683,0.017,0.009,0.001,0.009,0.01
684,0.012,0.005,-0.004,0,0.004
685,0.007,0.006,-0.005,-0.004,0.001
686,0.004,0.013,-0.002,0.001,0.003
687,0.004,0.012,0.005,0.003,0.003
688,0.004,0.012,0.006,0.003,0.005
689,0.01,0.012,0.004,0.001,0.002
690,0.013,0.016,0.008,0.006,0.004
691,0.016,0.023,0.015,0.012,0.012
692,0.014,0.022,0.018,0.018,0.018
693,0.019,0.025,0.019,0.019,0.018
694,0.023,0.027,0.019,0.02,0.018
695,0.023,0.024,0.015,0.016,0.016
696,0.021,0.016,0.011,0.014,0.013
697,0.019,0.013,0.005,0.009,0.004
698,0.017,0.012,0.002,0.004,-0.001
699,0.014,0.01,0.004,0.002,-0.005
700,0.014,0.012,0.007,0,-0.003
701,0.012,0.016,0.006,-0.002,-0.002
702,0.017,0.021,0.007,-0.001,0.002
703,0.018,0.022,0.013,0.005,0.006
704,0.016,0.022,0.016,0.009,0.013
705,0.007,0.011,0.008,0.001,0.01
706,0.005,0.002,-0.003,-0.006,0.001
707,0.01,0.001,-0.003,-0.007,0
708,0.015,0.008,-0.003,0.003,0.003
709,0.016,0.008,-0.004,0.007,0.01
710,0.017,0.006,-0.008,0.008,0.009
711,0.013,0.006,-0.004,0.005,0.005
712,0.009,0.014,0.004,0.005,-0.001
713,0.005,0.019,0.008,0.007,0.001
714,0.009,0.021,0.007,0.003,0.007
715,0.012,0.019,0.006,0.001,0.009
716,0.008,0.013,0.007,-0.002,0.01
717,0.003,0.011,0.003,0.001,0.007
718,-0.002,0.009,-0.001,-0.001,-0.001
719,-0.006,0.009,0.002,-0.003,-0.008
720,-0.005,0.009,0.005,-0.002,-0.004
721,0.008,0.015,0.007,0.002,0.003
722,0.014,0.013,0.01,0.005,0.01
723,0.014,0.005,0.006,0.004,0.01
724,0.011,0.003,0,0.001,0.009
725,0.006,0.008,-0.001,-0.002,-0.001
726,0.003,0.011,0.003,-0.004,-0.005
727,0.007,0.009,0.003,-0.001,-0.003
728,0.015,0.009,0.003,0,0.003
729,0.02,0.008,0.005,-0.001,0.002
730,0.011,0.006,0,-0.006,0.002
731,0.004,-0.007,-0.006,-0.008,0.001
732,0.001,-0.012,-0.015,-0.008,0
733,0.005,-0.013,-0.014,-0.005,0
734,0.007,-0.001,-0.009,0.001,0.005
735,0.009,0.005,0.002,0.007,0.011
736,0.013,0.012,0.002,0.006,0.013
737,0.015,0.011,0.004,0.005,0.01
738,0.016,0.02,0.008,0.006,0.006
739,0.011,0.021,0.009,0.002,0.001
740,0.002,0.012,0,-0.005,-0.001
741,-0.001,0.001,-0.008,-0.011,0
742,0.008,0.004,-0.008,-0.005,0.003
743,0.019,0.008,-0.005,0.001,0.004
744,0.017,0.004,-0.006,0.005,0.004
745,0.005,-0.003,-0.003,0.004,0.003
746,0.003,0.005,0.002,0.002,0.004
747,0.006,0.016,0.004,-0.001,0.005
748,0.003,0.009,0,-0.001,0
749,0,0.001,-0.005,-0.001,-0.002
750,0,0,0,0,0
751,0,0.01,0.002,-0.002,0
752,-0.005,0.005,-0.001,-0.005,-0.007
753,-0.005,-0.001,-0.011,-0.002,-0.004
754,0.002,-0.005,-0.01,0.004,0.003
755,0.01,0.007,-0.002,0.004,0.006
756,0.018,0.016,0.001,0.005,0.008
757,0.016,0.011,0.002,-0.002,0.01
758,0.01,-0.001,-0.006,-0.007,0.004
759,0.002,0,-0.007,-0.006,0
760,0,0.01,0.003,0.002,0
761,0.002,0.014,0.006,0.004,0.005
762,0.002,0.009,-0.001,0.003,0.004
763,0.002,0.007,-0.005,0.002,0.005
764,0.003,0.008,0.002,0.002,0.008
765,0.01,0.016,0.007,0.003,0.012
766,0.016,0.021,0.006,0.004,0.012
767,0.019,0.024,0.012,0.006,0.01
768,0.02,0.019,0.013,0.01,0.013
769,0.022,0.012,0.009,0.011,0.017
770,0.021,0.002,0.002,0.001,0.012
771,0.022,0.005,-0.003,-0.003,0.011
772,0.022,0.005,-0.005,0.001,0.015
773,0.013,0.006,-0.006,0.01,0.019
774,0.009,0.01,0.007,0.011,0.013
775,0.013,0.005,0.005,0.006,0.005
776,0.025,0.008,0.009,0.005,0.006
777,0.026,0.009,0.003,0.002,0.005
778,0.017,0.017,0.003,-0.001,0.006
779,0.011,0.008,0.006,0,0.013
780,0.01,0.013,0.016,0.003,0.02
781,0.008,0.014,0.014,-0.001,0.014
782,-0.003,0.005,0.001,-0.01,0
783,-0.012,-0.011,-0.009,-0.008,-0.002
784,-0.007,-0.006,-0.015,-0.005,-0.002
785,0,0.001,-0.02,-0.012,-0.006
786,0,-0.002,-0.029,-0.019,-0.018
787,-0.007,-0.01,-0.023,-0.013,-0.018
788,0.005,0.005,-0.011,0.005,-0.008
789,0.016,0.016,0.006,0.009,-0.005
790,0.013,0.019,0.01,0.007,0
791,-0.001,0.002,0.008,0.004,0.01
792,-0.007,-0.005,0,0.009,0.009
793,0.005,0.01,-0.009,0.007,0.004
794,0.014,0.024,-0.002,-0.001,0.007
795,0.016,0.024,-0.001,-0.007,0.009
796,0,0.011,0.01,-0.003,0.006
797,0.005,0.02,0.011,0.009,0.005
798,0.002,0.026,0.011,0.017,0.008
799,0.011,0.015,-0.003,0.013,0.018
800,0.012,-0.002,-0.007,0.002,0.016
801,0.018,-0.002,0.003,-0.003,0.013
802,0.004,-0.003,0.001,-0.007,0.002
803,0.001,-0.01,-0.002,-0.001,0.009
804,0.01,-0.012,-0.001,0.007,0.011
805,0.021,-0.001,-0.003,0.002,0.014
806,0.022,0.01,0.011,-0.004,0.017
807,0.018,0.02,0.021,-0.002,0.008
808,0.014,0.022,0.023,0.007,0.001
809,0.016,0.021,0.011,-0.001,-0.01
810,0.006,0.004,0,-0.018,-0.015
811,-0.012,-0.008,-0.01,-0.023,-0.009
812,-0.023,-0.014,-0.008,-0.013,-0.002
813,-0.007,-0.005,-0.004,-0.007,0.004
814,-0.005,0.005,-0.004,-0.019,-0.018
815,-0.009,0.014,-0.002,-0.026,-0.025
816,-0.003,0.015,0.01,-0.021,-0.014
817,0.021,0.015,0.013,-0.011,0.009
818,0.026,0.013,0.019,0.001,0.012
819,0.011,0.025,0.013,0.007,0.008
820,0.003,0.034,0.011,0.006,0.009
821,0.005,0.038,0.006,0.003,0.009
822,0.006,0.014,-0.002,0.002,0.008
823,0.006,-0.001,-0.01,0.001,0.008
824,0.012,-0.006,-0.009,0.002,0.007
825,0.012,-0.006,-0.003,-0.001,-0.001
826,0.008,-0.01,-0.007,-0.006,-0.004
827,0.024,0.001,0,0.003,0.008
828,0.036,0.006,0.009,0.016,0.022
829,0.028,0.002,0,0.014,0.016
830,0.003,0,-0.017,-0.009,-0.001
831,-0.01,0.012,-0.023,-0.018,-0.012
832,-0.011,0.012,-0.006,-0.01,-0.008
833,-0.007,0,0.003,0.001,-0.001
834,-0.003,0.002,-0.001,0.01,0.008
835,-0.01,0.005,-0.008,0.006,0.01
836,-0.011,0.007,-0.002,0.001,0.005
837,-0.001,-0.002,0.01,-0.014,-0.002
838,-0.003,0.003,0.004,-0.008,0.006
839,-0.011,0.011,-0.009,-0.007,-0.002
840,-0.023,0.025,-0.001,-0.013,-0.009
