,0,1,2,3
220,1.057,1.002,0.727,0.614
221,1.025,0.997,0.812,0.676
222,1.013,0.993,0.886,0.739
223,1.042,1.044,0.976,0.857
224,1.073,1.076,1.04,0.963
225,1.103,1.101,1.09,1.05
226,1.158,1.156,1.115,1.108
227,1.242,1.226,1.098,1.124
228,1.359,1.346,1.082,1.13
229,1.468,1.445,1.05,1.113
230,1.515,1.497,1.041,1.102
231,1.474,1.467,1.045,1.102
232,1.364,1.339,1.06,1.108
233,1.281,1.241,1.095,1.129
234,1.196,1.16,1.127,1.156
235,1.132,1.11,1.167,1.178
236,1.045,1.052,1.189,1.203
237,0.95,0.946,1.211,1.218
238,0.868,0.848,1.223,1.221
239,0.819,0.781,1.228,1.225
240,0.817,0.758,1.264,1.247
241,0.853,0.806,1.326,1.31
242,0.922,0.888,1.41,1.399
243,0.933,0.913,1.444,1.443
244,0.877,0.863,1.423,1.407
245,0.826,0.815,1.389,1.358
246,0.874,0.844,1.41,1.389
247,0.993,0.945,1.466,1.47
248,1.046,0.987,1.489,1.514
249,1.001,0.928,1.45,1.458
250,0.92,0.87,1.364,1.356
251,0.953,0.893,1.312,1.303
252,1.037,1.001,1.28,1.283
253,1.113,1.097,1.236,1.251
254,1.148,1.131,1.176,1.19
255,1.156,1.146,1.094,1.111
256,1.206,1.184,1.034,1.061
257,1.26,1.241,0.99,1.032
258,1.293,1.28,0.945,0.995
259,1.286,1.273,0.893,0.941
260,1.207,1.202,0.812,0.858
261,1.06,1.062,0.703,0.745
262,0.878,0.882,0.578,0.614
263,0.697,0.7,0.456,0.487
264,0.553,0.554,0.357,0.382
265,0.447,0.446,0.286,0.307
266,0.371,0.369,0.234,0.253
267,0.321,0.319,0.198,0.216
268,0.289,0.287,0.172,0.189
269,0.268,0.267,0.154,0.168
270,0.259,0.258,0.143,0.156
271,0.257,0.255,0.138,0.148
272,0.258,0.255,0.132,0.142
273,0.259,0.256,0.126,0.136
274,0.26,0.255,0.119,0.132
275,0.258,0.253,0.113,0.126
276,0.254,0.249,0.108,0.12
277,0.251,0.247,0.104,0.115
278,0.253,0.248,0.103,0.114
279,0.259,0.254,0.105,0.118
280,0.268,0.263,0.11,0.123
281,0.276,0.271,0.116,0.128
282,0.277,0.272,0.118,0.129
283,0.265,0.26,0.113,0.121
284,0.243,0.24,0.1,0.108
285,0.221,0.217,0.085,0.092
286,0.205,0.201,0.075,0.082
287,0.196,0.192,0.069,0.076
288,0.194,0.191,0.07,0.077
289,0.2,0.196,0.077,0.085
290,0.205,0.202,0.085,0.092
291,0.198,0.194,0.084,0.09
292,0.17,0.165,0.067,0.073
293,0.13,0.125,0.045,0.05
294,0.095,0.09,0.028,0.032
295,0.071,0.066,0.018,0.022
296,0.056,0.051,0.013,0.017
297,0.045,0.04,0.01,0.014
298,0.035,0.03,0.008,0.011
299,0.028,0.024,0.007,0.01
300,0.022,0.019,0.006,0.008
301,0.017,0.014,0.004,0.006
302,0.014,0.009,0.002,0.004
303,0.011,0.005,0,0.003
304,0.009,0.004,0,0.003
305,0.008,0.004,0,0.003
306,0.008,0.004,-0.001,0.003
307,0.008,0.003,-0.001,0.003
308,0.009,0.003,0,0.003
309,0.008,0.002,0.002,0.002
310,0.007,0.003,0.002,0.003
311,0.006,0.002,0.001,0.002
312,0.005,0.001,-0.001,0.002
313,0.004,0.001,-0.002,0.001
314,0.004,0,-0.002,0
315,0.004,-0.001,-0.002,0
316,0.005,0,-0.001,0
317,0.005,0.001,-0.001,0.001
318,0.004,0.002,-0.001,0.001
319,0.005,0.002,-0.001,0.001
320,0.004,0.001,-0.002,0
321,0.004,0,-0.002,-0.001
322,0.003,-0.001,-0.003,-0.001
323,0.002,-0.001,-0.004,-0.002
324,0.002,-0.002,-0.004,-0.002
325,0.001,-0.002,-0.004,-0.002
326,0.002,-0.002,-0.004,-0.002
327,0.003,-0.002,-0.003,-0.002
328,0.003,-0.001,-0.003,-0.001
329,0.002,-0.002,-0.003,-0.002
330,0.001,-0.002,-0.004,-0.002
331,0.001,-0.002,-0.004,-0.002
332,0.001,-0.002,-0.004,-0.002
333,0.002,-0.003,-0.004,-0.002
334,0.002,-0.003,-0.005,-0.003
335,0.001,-0.003,-0.005,-0.005
336,-0.001,-0.003,-0.006,-0.005
337,-0.001,-0.004,-0.006,-0.005
338,-0.001,-0.004,-0.006,-0.005
339,0,-0.003,-0.006,-0.004
340,0,-0.002,-0.006,-0.004
341,-0.001,-0.003,-0.005,-0.003
342,0,-0.002,-0.004,-0.003
343,0,-0.002,-0.004,-0.003
344,0.001,-0.003,-0.003,-0.003
345,0,-0.004,-0.004,-0.004
346,-0.001,-0.005,-0.005,-0.005
347,-0.002,-0.005,-0.007,-0.005
348,-0.003,-0.005,-0.007,-0.005
349,-0.003,-0.004,-0.006,-0.004
350,-0.002,-0.004,-0.005,-0.004
351,-0.002,-0.004,-0.005,-0.004
352,-0.002,-0.004,-0.006,-0.004
353,-0.002,-0.005,-0.007,-0.004
354,-0.001,-0.004,-0.006,-0.003
355,-0.001,-0.005,-0.006,-0.003
356,-0.001,-0.005,-0.005,-0.003
357,-0.001,-0.005,-0.005,-0.003
358,-0.001,-0.005,-0.005,-0.002
359,-0.001,-0.004,-0.004,-0.002
360,0,-0.004,-0.004,-0.003
361,0.001,-0.003,-0.003,-0.003
362,0,-0.004,-0.003,-0.003
363,0,-0.005,-0.003,-0.003
364,-0.002,-0.006,-0.004,-0.004
365,-0.002,-0.005,-0.005,-0.004
366,-0.001,-0.004,-0.004,-0.002
367,-0.001,-0.004,-0.004,-0.002
368,-0.001,-0.004,-0.004,-0.002
369,-0.001,-0.004,-0.005,-0.003
370,-0.001,-0.004,-0.004,-0.003
371,-0.001,-0.004,-0.004,-0.002
372,-0.001,-0.004,-0.005,-0.002
373,-0.001,-0.004,-0.005,-0.001
374,-0.001,-0.004,-0.005,-0.001
375,-0.001,-0.004,-0.004,-0.001
376,0,-0.003,-0.003,0
377,0.001,-0.002,-0.002,0
378,0.001,-0.003,-0.002,-0.001
379,0,-0.004,-0.002,-0.002
380,0,-0.003,-0.002,-0.003
381,0.001,-0.002,-0.001,0
382,0.001,-0.003,-0.002,0.001
383,0.001,-0.003,-0.002,0.001
384,0,-0.004,-0.003,0
385,0,-0.003,-0.003,-0.001
386,-0.001,-0.004,-0.005,-0.002
387,-0.001,-0.005,-0.005,-0.003
388,0,-0.004,-0.005,-0.002
389,0.001,-0.003,-0.003,0
390,0.002,-0.002,-0.002,0.001
391,0.001,-0.003,-0.003,-0.001
392,0.001,-0.004,-0.003,-0.002
393,0.001,-0.003,-0.003,-0.002
394,0,-0.004,-0.004,-0.001
395,-0.002,-0.004,-0.005,-0.003
396,-0.002,-0.005,-0.006,-0.003
397,-0.002,-0.005,-0.005,-0.003
398,-0.003,-0.005,-0.006,-0.004
399,-0.003,-0.006,-0.006,-0.004
400,-0.002,-0.005,-0.004,-0.003
401,0,-0.003,-0.002,-0.001
402,0.001,-0.001,-0.001,0.001
403,0.001,-0.001,-0.003,0
404,0,-0.002,-0.005,-0.001
405,-0.001,-0.004,-0.006,-0.003
406,-0.001,-0.004,-0.005,-0.002
407,0.001,-0.003,-0.003,-0.001
408,0.002,-0.003,-0.003,0
409,0.001,-0.004,-0.004,-0.001
410,0.001,-0.003,-0.003,0
411,0.002,-0.002,-0.002,0.001
412,0.001,-0.001,-0.003,0
413,0,-0.003,-0.004,0
414,0.001,-0.002,-0.002,0.001
415,0.002,0,0,0.002
416,0.002,-0.001,0,0.001
417,-0.001,-0.004,-0.003,-0.002
418,-0.003,-0.007,-0.006,-0.004
419,-0.003,-0.006,-0.005,-0.004
420,-0.002,-0.004,-0.004,-0.002
421,-0.001,-0.003,-0.003,-0.002
422,-0.001,-0.003,-0.003,-0.003
423,-0.003,-0.004,-0.004,-0.004
424,-0.002,-0.004,-0.004,-0.005
425,-0.002,-0.005,-0.005,-0.004
426,-0.002,-0.006,-0.006,-0.005
427,-0.003,-0.006,-0.007,-0.005
428,-0.004,-0.006,-0.007,-0.006
429,-0.002,-0.004,-0.006,-0.004
430,0,-0.003,-0.004,-0.001
431,0.002,-0.001,-0.002,0.001
432,0.001,-0.002,-0.003,0
433,0,-0.004,-0.004,-0.001
434,-0.001,-0.004,-0.004,-0.002
435,-0.001,-0.004,-0.004,-0.002
436,-0.002,-0.005,-0.005,-0.002
437,-0.002,-0.005,-0.005,-0.002
438,-0.003,-0.005,-0.005,-0.002
439,-0.002,-0.005,-0.005,-0.002
440,-0.002,-0.005,-0.005,-0.002
441,-0.003,-0.006,-0.008,-0.004
442,-0.004,-0.007,-0.01,-0.005
443,-0.005,-0.007,-0.01,-0.006
444,-0.003,-0.005,-0.007,-0.004
445,-0.002,-0.005,-0.005,-0.003
446,-0.004,-0.006,-0.006,-0.005
447,-0.005,-0.007,-0.007,-0.006
448,-0.003,-0.005,-0.005,-0.004
449,0,-0.002,-0.002,-0.001
450,0.001,-0.002,-0.003,-0.001
451,-0.002,-0.004,-0.005,-0.002
452,-0.003,-0.004,-0.005,-0.002
453,-0.003,-0.003,-0.005,-0.002
454,-0.002,-0.003,-0.005,-0.002
455,-0.003,-0.005,-0.006,-0.004
456,-0.005,-0.007,-0.008,-0.007
457,-0.005,-0.008,-0.009,-0.008
458,-0.006,-0.008,-0.009,-0.007
459,-0.006,-0.009,-0.008,-0.005
460,-0.007,-0.009,-0.007,-0.005
461,-0.008,-0.01,-0.008,-0.006
462,-0.008,-0.01,-0.008,-0.007
463,-0.009,-0.011,-0.01,-0.009
464,-0.007,-0.009,-0.009,-0.007
465,-0.005,-0.006,-0.007,-0.004
466,-0.002,-0.004,-0.007,-0.002
467,-0.003,-0.006,-0.009,-0.004
468,-0.006,-0.008,-0.011,-0.007
469,-0.009,-0.01,-0.011,-0.009
470,-0.007,-0.008,-0.01,-0.008
471,-0.004,-0.006,-0.009,-0.006
472,-0.003,-0.005,-0.007,-0.004
473,-0.004,-0.007,-0.006,-0.004
474,-0.004,-0.007,-0.006,-0.004
475,-0.003,-0.006,-0.006,-0.005
476,-0.005,-0.007,-0.008,-0.007
477,-0.007,-0.008,-0.01,-0.008
478,-0.008,-0.009,-0.01,-0.008
479,-0.006,-0.007,-0.008,-0.006
480,-0.006,-0.007,-0.008,-0.007
481,-0.008,-0.01,-0.011,-0.01
482,-0.009,-0.012,-0.012,-0.01
483,-0.007,-0.011,-0.01,-0.009
484,-0.006,-0.008,-0.008,-0.008
485,-0.006,-0.007,-0.008,-0.008
486,-0.007,-0.008,-0.009,-0.008
487,-0.008,-0.009,-0.01,-0.009
488,-0.011,-0.013,-0.014,-0.012
489,-0.011,-0.013,-0.015,-0.013
490,-0.011,-0.013,-0.015,-0.013
491,-0.01,-0.012,-0.013,-0.012
492,-0.012,-0.014,-0.014,-0.013
493,-0.014,-0.015,-0.016,-0.016
494,-0.013,-0.014,-0.016,-0.015
495,-0.011,-0.011,-0.014,-0.013
496,-0.008,-0.008,-0.01,-0.01
497,-0.009,-0.009,-0.01,-0.008
498,-0.011,-0.01,-0.012,-0.01
499,-0.012,-0.013,-0.014,-0.013
500,-0.014,-0.015,-0.017,-0.016
501,-0.013,-0.013,-0.016,-0.015
502,-0.011,-0.012,-0.014,-0.013
503,-0.01,-0.01,-0.012,-0.012
504,-0.011,-0.01,-0.012,-0.014
505,-0.011,-0.01,-0.013,-0.014
506,-0.011,-0.01,-0.012,-0.013
507,-0.011,-0.011,-0.012,-0.012
508,-0.01,-0.011,-0.012,-0.012
509,-0.011,-0.012,-0.013,-0.014
510,-0.013,-0.014,-0.015,-0.016
511,-0.016,-0.016,-0.018,-0.019
512,-0.018,-0.017,-0.019,-0.02
513,-0.017,-0.017,-0.018,-0.02
514,-0.017,-0.017,-0.019,-0.02
515,-0.019,-0.02,-0.024,-0.021
516,-0.019,-0.021,-0.025,-0.022
517,-0.016,-0.017,-0.021,-0.019
518,-0.013,-0.013,-0.017,-0.014
519,-0.013,-0.011,-0.015,-0.014
520,-0.015,-0.015,-0.017,-0.017
521,-0.017,-0.017,-0.02,-0.02
522,-0.018,-0.019,-0.022,-0.021
523,-0.02,-0.021,-0.025,-0.023
524,-0.02,-0.021,-0.024,-0.022
525,-0.018,-0.018,-0.021,-0.02
526,-0.015,-0.015,-0.017,-0.018
527,-0.014,-0.014,-0.015,-0.018
528,-0.015,-0.015,-0.016,-0.018
529,-0.018,-0.018,-0.02,-0.022
530,-0.023,-0.021,-0.025,-0.025
531,-0.025,-0.023,-0.027,-0.027
532,-0.023,-0.021,-0.024,-0.024
533,-0.019,-0.018,-0.02,-0.019
534,-0.019,-0.018,-0.02,-0.019
535,-0.02,-0.019,-0.022,-0.02
536,-0.021,-0.021,-0.024,-0.023
537,-0.024,-0.023,-0.025,-0.026
538,-0.024,-0.022,-0.025,-0.026
539,-0.023,-0.021,-0.023,-0.025
540,-0.018,-0.018,-0.019,-0.021
541,-0.016,-0.015,-0.017,-0.018
542,-0.016,-0.016,-0.018,-0.019
543,-0.019,-0.019,-0.021,-0.023
544,-0.023,-0.021,-0.025,-0.027
545,-0.023,-0.021,-0.025,-0.026
546,-0.023,-0.021,-0.025,-0.025
547,-0.022,-0.021,-0.026,-0.024
548,-0.022,-0.021,-0.026,-0.025
549,-0.023,-0.021,-0.026,-0.027
550,-0.025,-0.022,-0.024,-0.027
551,-0.023,-0.021,-0.023,-0.025
552,-0.02,-0.019,-0.023,-0.022
553,-0.019,-0.017,-0.021,-0.022
554,-0.021,-0.019,-0.022,-0.025
555,-0.021,-0.02,-0.022,-0.026
556,-0.02,-0.019,-0.02,-0.025
557,-0.018,-0.016,-0.019,-0.022
558,-0.017,-0.015,-0.02,-0.022
559,-0.02,-0.017,-0.023,-0.024
560,-0.02,-0.017,-0.021,-0.024
561,-0.02,-0.017,-0.021,-0.023
562,-0.02,-0.017,-0.021,-0.021
563,-0.021,-0.019,-0.023,-0.021
564,-0.024,-0.022,-0.026,-0.024
565,-0.024,-0.023,-0.025,-0.026
566,-0.023,-0.022,-0.024,-0.026
567,-0.021,-0.022,-0.023,-0.024
568,-0.02,-0.02,-0.022,-0.023
569,-0.02,-0.019,-0.021,-0.022
570,-0.021,-0.019,-0.021,-0.023
571,-0.019,-0.019,-0.02,-0.021
572,-0.018,-0.018,-0.019,-0.02
573,-0.021,-0.02,-0.023,-0.022
574,-0.023,-0.022,-0.027,-0.026
575,-0.026,-0.025,-0.031,-0.029
576,-0.026,-0.025,-0.029,-0.029
577,-0.023,-0.023,-0.026,-0.027
578,-0.021,-0.021,-0.023,-0.023
579,-0.016,-0.017,-0.019,-0.019
580,-0.016,-0.015,-0.017,-0.017
581,-0.016,-0.015,-0.017,-0.016
582,-0.016,-0.016,-0.017,-0.016
583,-0.017,-0.018,-0.019,-0.019
584,-0.02,-0.021,-0.022,-0.024
585,-0.019,-0.02,-0.021,-0.023
586,-0.017,-0.017,-0.018,-0.02
587,-0.013,-0.011,-0.012,-0.013
588,-0.012,-0.009,-0.011,-0.012
589,-0.014,-0.013,-0.017,-0.015
590,-0.015,-0.016,-0.02,-0.016
591,-0.014,-0.014,-0.018,-0.015
592,-0.011,-0.011,-0.015,-0.014
593,-0.012,-0.014,-0.016,-0.015
594,-0.013,-0.015,-0.016,-0.016
595,-0.013,-0.012,-0.015,-0.013
596,-0.012,-0.01,-0.014,-0.012
597,-0.015,-0.014,-0.019,-0.015
598,-0.018,-0.018,-0.023,-0.019
599,-0.017,-0.017,-0.021,-0.019
600,-0.016,-0.014,-0.018,-0.017
601,-0.016,-0.014,-0.017,-0.017
602,-0.016,-0.015,-0.017,-0.016
603,-0.014,-0.016,-0.017,-0.014
604,-0.011,-0.014,-0.017,-0.012
605,-0.011,-0.013,-0.016,-0.011
606,-0.009,-0.011,-0.014,-0.011
607,-0.008,-0.009,-0.012,-0.01
608,-0.006,-0.008,-0.009,-0.008
609,-0.007,-0.008,-0.007,-0.007
610,-0.008,-0.008,-0.007,-0.009
611,-0.011,-0.011,-0.011,-0.012
612,-0.012,-0.013,-0.015,-0.013
613,-0.009,-0.012,-0.013,-0.012
614,-0.005,-0.008,-0.01,-0.008
615,-0.001,-0.006,-0.007,-0.005
616,0.002,-0.003,-0.005,0
617,0.001,-0.003,-0.005,0.002
618,-0.001,-0.004,-0.004,0.002
619,-0.003,-0.006,-0.003,-0.001
620,-0.001,-0.004,0,-0.001
621,0,0,0.001,0
622,0.001,0.001,0,0.001
623,0.001,-0.002,-0.002,0.001
624,-0.001,-0.005,-0.004,-0.001
625,-0.002,-0.005,-0.005,-0.002
626,-0.002,-0.004,-0.007,-0.004
627,-0.003,-0.006,-0.007,-0.006
628,-0.005,-0.007,-0.008,-0.006
629,-0.005,-0.008,-0.009,-0.006
630,-0.004,-0.008,-0.007,-0.006
631,-0.004,-0.008,-0.007,-0.005
632,-0.003,-0.009,-0.007,-0.005
633,-0.004,-0.01,-0.007,-0.004
634,-0.002,-0.009,-0.006,-0.003
635,0,-0.005,-0.005,-0.002
636,0.002,-0.002,-0.003,0
637,0.001,-0.001,0,0
638,0.001,0,0,-0.001
639,0.003,0,0,0.001
640,0.004,0,-0.001,0.005
641,0,-0.004,-0.004,0.003
642,-0.002,-0.006,-0.006,0.001
643,-0.002,-0.005,-0.005,-0.001
644,-0.002,-0.004,-0.004,-0.002
645,-0.003,-0.005,-0.005,-0.004
646,-0.003,-0.007,-0.005,-0.005
647,-0.001,-0.005,-0.003,-0.004
648,0.001,-0.004,0,-0.002
649,0.003,-0.002,0.003,0.001
650,0.001,-0.002,0.001,0.001
651,-0.003,-0.006,-0.004,0
652,-0.003,-0.008,-0.005,0
653,0,-0.005,-0.003,0.004
654,0.001,-0.002,-0.001,0.006
655,0.001,0,0.001,0.006
656,0.001,0,0.001,0.003
657,0,-0.002,-0.001,0
658,0.001,-0.002,0,-0.001
659,0.006,0.002,0.005,0.004
660,0.008,0.005,0.008,0.007
661,0.006,0.002,0.006,0.006
662,0.001,-0.004,-0.001,0.001
663,0,-0.006,-0.003,0
664,-0.002,-0.008,-0.005,0
665,-0.003,-0.007,-0.004,-0.001
666,-0.003,-0.007,-0.004,-0.004
667,-0.002,-0.006,-0.004,-0.005
668,-0.003,-0.007,-0.009,-0.006
669,-0.002,-0.005,-0.008,-0.005
670,0.002,0,-0.003,-0.001
671,0.004,0.001,0,0.002
672,0.004,0.001,-0.001,0.004
673,0.006,0.003,0.001,0.008
674,0.006,0.003,0.002,0.008
675,0.004,0.001,0.001,0.007
676,0.003,0,0,0.005
677,0.004,0,0,0.004
678,0,-0.004,-0.002,-0.001
679,-0.001,-0.005,-0.003,0
680,0.002,-0.003,-0.001,0.004
681,0.005,0.001,0.002,0.006
682,0.003,0.001,0.003,0.004
683,0.002,0,0.002,0.002
684,0.003,0.001,0.001,0.002
685,0.006,0.003,0.002,0.005
686,0.008,0.005,0.004,0.006
687,0.009,0.006,0.004,0.004
688,0.006,0.003,0.001,0.001
689,0.005,0,-0.002,0.001
690,0.004,-0.001,-0.004,0.001
691,0.007,0.002,0,0.005
692,0.006,0.004,0.003,0.007
693,0.005,0.002,0.004,0.006
694,0.002,-0.002,0.001,0.002
695,0,-0.005,-0.002,-0.001
696,0.001,-0.004,-0.002,0
697,0.002,-0.004,-0.002,0.003
698,0.002,-0.002,0,0.004
699,-0.001,-0.003,-0.001,-0.001
700,-0.001,-0.003,-0.003,-0.002
701,-0.001,-0.005,-0.004,-0.002
702,0,-0.004,-0.004,-0.001
703,0,-0.005,-0.006,-0.002
704,0,-0.005,-0.004,-0.002
705,0.002,-0.003,0,0.002
706,0.006,0.001,0.003,0.005
707,0.008,0.004,0.005,0.006
708,0.008,0.005,0.004,0.005
709,0.007,0.003,0.003,0.002
710,0.005,0,0.002,0
711,0.004,-0.002,0.001,0
712,0.003,-0.003,-0.001,-0.002
713,0.004,-0.002,-0.001,-0.003
714,0.002,-0.004,-0.004,-0.003
715,0,-0.005,-0.005,-0.002
716,-0.001,-0.007,-0.005,-0.001
717,0.002,-0.003,-0.002,0.001
718,0.004,-0.001,0,0.004
719,0.004,-0.001,-0.001,0.003
720,-0.001,-0.002,-0.002,-0.001
721,-0.004,-0.003,-0.002,-0.003
722,-0.004,-0.003,-0.003,-0.003
723,-0.003,-0.007,-0.007,-0.001
724,-0.004,-0.008,-0.009,-0.001
725,-0.006,-0.009,-0.009,-0.002
726,-0.005,-0.007,-0.007,-0.002
727,-0.004,-0.004,-0.006,-0.002
728,-0.004,-0.006,-0.008,-0.005
729,-0.007,-0.01,-0.011,-0.009
730,-0.007,-0.009,-0.007,-0.008
731,-0.004,-0.006,-0.003,-0.005
732,-0.003,-0.008,-0.002,-0.005
733,-0.004,-0.008,-0.006,-0.008
734,-0.004,-0.006,-0.009,-0.007
735,-0.004,-0.005,-0.011,-0.008
736,-0.007,-0.007,-0.012,-0.01
737,-0.007,-0.009,-0.011,-0.009
738,-0.009,-0.01,-0.009,-0.009
739,-0.009,-0.009,-0.008,-0.01
740,-0.009,-0.011,-0.01,-0.012
741,-0.011,-0.014,-0.018,-0.015
742,-0.014,-0.017,-0.019,-0.015
743,-0.012,-0.016,-0.015,-0.011
744,-0.01,-0.014,-0.011,-0.007
745,-0.011,-0.012,-0.011,-0.008
746,-0.015,-0.014,-0.017,-0.013
747,-0.014,-0.014,-0.016,-0.016
748,-0.008,-0.011,-0.011,-0.014
749,-0.001,-0.004,-0.002,-0.005
750,0,0,0,0
