,0,1,2,3,4,5,6,7,8,9,10,11,12,13,14,15,16,17
220,0.335,-0.034,-0.029,0.07,0.095,1.167,1.27,1.263,1.125,1.143,0.102,0.022,-0.363,-0.033,0.221,0.287,-0.065,0.565
221,0.359,0.048,0.035,0.132,0.071,1.018,1.022,1.4,1.096,1.141,0.152,0.102,0.053,0.17,0.287,0.285,0.06,0.614
222,0.281,0.306,0.167,0.125,0.081,0.946,0.925,1.267,1.131,1.107,0.279,0.174,0.213,0.27,0.416,0.372,0.442,0.511
223,0.149,0.189,0.147,0.127,0.064,0.85,0.975,1.1,1.084,1.077,0.254,0.219,0.215,0.316,0.448,0.536,0.418,0.604
224,-0.058,0.063,0.099,0.061,0.068,0.733,0.8,1.027,1.003,1,0.245,0.296,0.249,0.436,0.49,0.684,0.566,0.627
225,-0.02,-0.014,-0.003,0.075,0.06,0.768,0.732,0.94,0.909,0.875,0.331,0.404,0.317,0.613,0.703,0.859,0.769,0.856
226,0.051,-0.007,0.024,0.138,0.055,0.639,0.566,0.818,0.876,0.818,0.601,0.607,0.506,0.825,0.949,1.035,0.953,1.096
227,0.202,0.008,0.002,0.162,0.036,0.623,0.486,0.634,0.84,0.772,0.996,0.952,0.842,0.973,1.088,1.087,1.052,1.186
228,0.311,0.113,-0.132,0.155,0.043,0.447,0.46,0.643,0.738,0.747,1.258,1.195,1.146,0.958,1.003,1.02,0.982,1.068
229,0.279,0.099,-0.01,0.1,0.078,0.44,0.414,0.717,0.644,0.643,1.279,1.207,1.208,0.784,0.789,0.802,0.791,0.798
230,0.204,0.045,-0.009,0.029,0.08,0.513,0.43,0.767,0.527,0.547,0.989,0.94,0.997,0.553,0.568,0.557,0.559,0.568
231,0.068,0.038,0.277,-0.012,0.065,0.438,0.317,0.675,0.398,0.411,0.677,0.66,0.707,0.376,0.402,0.389,0.387,0.388
232,-0.007,0.015,0.151,0.003,0.051,0.367,0.277,0.403,0.297,0.248,0.482,0.478,0.491,0.265,0.286,0.274,0.273,0.28
233,-0.09,-0.009,0.026,0.039,0.058,0.17,0.24,0.263,0.198,0.185,0.368,0.367,0.376,0.203,0.223,0.212,0.209,0.217
234,-0.18,0.015,0.065,0.048,0.075,0.176,0.272,0.129,0.258,0.159,0.312,0.314,0.316,0.17,0.19,0.179,0.179,0.185
235,-0.211,0.142,-0.109,0.134,0.079,0.041,0.206,0.136,0.242,0.146,0.279,0.28,0.283,0.152,0.171,0.159,0.161,0.166
236,-0.159,0.112,0.085,0.22,0.068,0.082,0.093,0.162,0.19,0.124,0.267,0.27,0.269,0.145,0.164,0.15,0.154,0.157
237,-0.058,0.202,0.007,0.225,0.064,0.242,0.051,0.198,0.155,0.081,0.264,0.268,0.265,0.144,0.163,0.149,0.153,0.156
238,0.012,0.208,-0.003,0.179,0.062,0.332,0.043,0.285,0.068,0.087,0.265,0.27,0.268,0.145,0.164,0.148,0.157,0.154
239,0.069,0.276,-0.003,0.079,0.061,0.227,0.159,0.289,0.11,0.108,0.267,0.274,0.272,0.147,0.164,0.15,0.16,0.155
240,0.102,0.192,-0.025,0.08,0.055,0.12,0.198,0.383,0.138,0.153,0.271,0.275,0.276,0.15,0.163,0.152,0.157,0.158
241,0.13,0.174,0.125,0.06,0.05,0.104,0.294,0.227,0.167,0.18,0.278,0.28,0.282,0.153,0.167,0.155,0.159,0.163
242,0.054,0.309,0.144,0.049,0.057,0.07,0.262,0.119,0.256,0.161,0.286,0.288,0.289,0.156,0.171,0.162,0.161,0.167
243,0.17,0.221,0.126,0.076,0.07,0.105,0.154,0.174,0.251,0.183,0.293,0.296,0.297,0.159,0.178,0.165,0.167,0.169
244,0.172,0.203,0.236,0.083,0.087,0.066,0.127,0.133,0.208,0.164,0.298,0.302,0.302,0.162,0.181,0.168,0.171,0.173
245,0.077,0.187,0.239,0.084,0.089,0.117,0.058,0.348,0.143,0.143,0.301,0.305,0.305,0.164,0.182,0.168,0.172,0.176
246,0.044,0.226,0.201,0.05,0.095,0.198,0.112,0.325,0.073,0.137,0.305,0.309,0.309,0.166,0.184,0.17,0.174,0.177
247,0.002,0.293,0.114,0.029,0.086,0.255,0.097,0.193,0.137,0.099,0.309,0.313,0.315,0.169,0.185,0.174,0.177,0.179
248,0.152,0.111,0.079,0.039,0.069,0.379,0.13,0.157,0.202,0.142,0.316,0.319,0.322,0.173,0.19,0.179,0.179,0.182
249,0.118,0.127,0.13,0.044,0.058,0.323,0.118,0.13,0.219,0.156,0.319,0.325,0.326,0.176,0.194,0.18,0.182,0.186
250,-0.027,0.235,-0.034,0.043,0.065,0.151,0.093,0.209,0.191,0.161,0.316,0.323,0.327,0.175,0.197,0.18,0.182,0.187
251,0.005,0.272,-0.02,0.049,0.07,0.067,0.093,0.169,0.17,0.152,0.316,0.319,0.326,0.174,0.197,0.18,0.182,0.186
252,0.068,0.14,0.053,0.077,0.089,0.048,0.164,0.053,0.17,0.188,0.318,0.319,0.331,0.176,0.197,0.181,0.184,0.187
253,0.089,-0.048,0.141,0.096,0.086,0.185,0.283,0.071,0.203,0.228,0.33,0.325,0.337,0.181,0.198,0.185,0.189,0.191
254,0.163,-0.017,0.132,0.081,0.104,0.342,0.328,0.264,0.326,0.315,0.336,0.336,0.343,0.186,0.199,0.187,0.193,0.196
255,0.22,0.2,0.136,0.096,0.12,0.46,0.356,0.374,0.404,0.406,0.331,0.337,0.338,0.185,0.199,0.185,0.19,0.194
256,0.238,0.333,0.212,0.11,0.109,0.506,0.446,0.423,0.496,0.532,0.321,0.325,0.33,0.178,0.195,0.181,0.183,0.187
257,0.2,0.448,0.308,0.105,0.106,0.643,0.618,0.674,0.698,0.789,0.315,0.316,0.326,0.175,0.192,0.18,0.181,0.187
258,0.08,0.329,0.295,0.099,0.086,0.797,0.889,0.912,1.044,1.081,0.327,0.324,0.336,0.18,0.197,0.187,0.188,0.194
259,0.136,0.318,0.274,0.092,0.112,1.184,1.245,1.347,1.523,1.407,0.35,0.348,0.358,0.191,0.206,0.198,0.199,0.207
260,0.155,0.433,0.245,0.141,0.132,1.587,1.595,1.731,1.772,1.613,0.366,0.366,0.373,0.2,0.213,0.205,0.206,0.212
261,0.248,0.32,0.243,0.175,0.159,1.742,1.789,1.863,1.736,1.684,0.36,0.36,0.367,0.197,0.211,0.201,0.201,0.207
262,0.453,0.639,0.184,0.228,0.172,1.728,1.783,1.874,1.55,1.613,0.335,0.336,0.343,0.184,0.2,0.188,0.188,0.195
263,0.665,0.663,0.221,0.306,0.251,1.66,1.689,1.617,1.356,1.432,0.307,0.309,0.317,0.17,0.187,0.176,0.177,0.181
264,1.015,0.87,0.428,0.518,0.441,1.649,1.57,1.39,1.235,1.269,0.289,0.289,0.299,0.161,0.176,0.168,0.168,0.171
265,1.26,1.106,0.864,0.833,0.768,1.554,1.477,1.37,1.135,1.144,0.285,0.282,0.292,0.158,0.172,0.165,0.166,0.166
266,1.476,1.271,1.272,1.154,1.127,1.428,1.408,1.373,1.062,1.076,0.283,0.278,0.287,0.154,0.169,0.16,0.161,0.164
267,1.619,1.631,1.55,1.437,1.38,1.293,1.37,1.36,1.035,1.038,0.264,0.262,0.271,0.146,0.16,0.148,0.149,0.155
268,1.618,1.719,1.601,1.567,1.495,1.289,1.381,1.371,1.019,1.02,0.235,0.237,0.243,0.132,0.144,0.133,0.136,0.141
269,1.62,1.667,1.558,1.557,1.451,1.285,1.388,1.345,1.024,1.021,0.21,0.213,0.216,0.118,0.129,0.121,0.123,0.127
270,1.571,1.635,1.513,1.507,1.405,1.318,1.384,1.347,1.035,1.035,0.191,0.194,0.196,0.107,0.118,0.112,0.114,0.118
271,1.567,1.567,1.41,1.484,1.384,1.362,1.416,1.397,1.057,1.071,0.17,0.173,0.173,0.094,0.107,0.099,0.104,0.107
272,1.59,1.543,1.437,1.514,1.398,1.412,1.437,1.453,1.083,1.09,0.131,0.136,0.135,0.075,0.087,0.076,0.083,0.085
273,1.612,1.562,1.4,1.522,1.417,1.436,1.456,1.507,1.106,1.113,0.092,0.099,0.094,0.053,0.065,0.053,0.062,0.061
274,1.582,1.525,1.374,1.484,1.396,1.463,1.464,1.51,1.116,1.13,0.065,0.073,0.067,0.039,0.051,0.038,0.047,0.046
275,1.508,1.497,1.33,1.42,1.348,1.471,1.463,1.507,1.13,1.148,0.049,0.06,0.053,0.032,0.042,0.03,0.039,0.039
276,1.409,1.432,1.258,1.368,1.284,1.463,1.494,1.498,1.152,1.169,0.043,0.052,0.045,0.028,0.037,0.027,0.036,0.036
277,1.348,1.366,1.245,1.333,1.228,1.49,1.521,1.491,1.17,1.186,0.037,0.046,0.039,0.025,0.034,0.024,0.033,0.034
278,1.359,1.343,1.229,1.328,1.209,1.503,1.511,1.478,1.198,1.206,0.034,0.042,0.036,0.024,0.033,0.023,0.032,0.032
279,1.42,1.344,1.226,1.359,1.225,1.552,1.486,1.498,1.217,1.23,0.031,0.041,0.034,0.024,0.034,0.022,0.031,0.031
280,1.489,1.379,1.268,1.402,1.282,1.535,1.512,1.473,1.234,1.239,0.028,0.04,0.032,0.023,0.033,0.021,0.03,0.03
281,1.552,1.431,1.313,1.432,1.341,1.506,1.578,1.494,1.24,1.239,0.027,0.038,0.03,0.021,0.031,0.02,0.026,0.029
282,1.55,1.471,1.345,1.457,1.362,1.509,1.635,1.53,1.234,1.226,0.026,0.035,0.029,0.019,0.03,0.018,0.022,0.028
283,1.449,1.43,1.298,1.401,1.298,1.481,1.619,1.554,1.215,1.203,0.026,0.035,0.028,0.019,0.029,0.018,0.022,0.027
284,1.273,1.274,1.146,1.249,1.14,1.495,1.546,1.559,1.185,1.176,0.026,0.034,0.028,0.018,0.029,0.019,0.023,0.027
285,1.044,1.07,0.964,1.055,0.954,1.481,1.487,1.515,1.149,1.153,0.025,0.032,0.027,0.017,0.026,0.019,0.022,0.025
286,0.89,0.901,0.808,0.871,0.8,1.454,1.487,1.484,1.116,1.14,0.023,0.029,0.026,0.017,0.024,0.017,0.021,0.024
287,0.804,0.825,0.735,0.796,0.725,1.409,1.46,1.43,1.092,1.115,0.021,0.027,0.024,0.016,0.024,0.015,0.02,0.023
288,0.829,0.851,0.763,0.823,0.75,1.349,1.428,1.41,1.064,1.084,0.021,0.027,0.023,0.016,0.024,0.014,0.021,0.025
289,0.98,0.996,0.892,0.955,0.877,1.318,1.367,1.374,1.034,1.047,0.019,0.027,0.022,0.015,0.023,0.012,0.022,0.025
290,1.126,1.122,1.02,1.088,1.002,1.27,1.307,1.329,0.99,0.999,0.017,0.027,0.02,0.014,0.022,0.01,0.021,0.024
291,1.107,1.089,0.995,1.065,0.981,1.201,1.238,1.25,0.926,0.933,0.016,0.026,0.019,0.013,0.022,0.011,0.021,0.022
292,0.869,0.857,0.779,0.841,0.77,1.093,1.137,1.121,0.839,0.844,0.015,0.023,0.018,0.012,0.023,0.013,0.02,0.021
293,0.528,0.539,0.482,0.523,0.475,0.966,1.009,0.984,0.733,0.737,0.014,0.022,0.017,0.012,0.023,0.015,0.019,0.022
294,0.272,0.299,0.252,0.274,0.248,0.828,0.866,0.845,0.622,0.627,0.012,0.021,0.016,0.012,0.021,0.014,0.018,0.021
295,0.139,0.164,0.131,0.142,0.128,0.692,0.72,0.707,0.515,0.519,0.012,0.023,0.015,0.012,0.02,0.012,0.017,0.02
296,0.079,0.101,0.076,0.083,0.074,0.562,0.585,0.581,0.417,0.42,0.012,0.023,0.013,0.011,0.02,0.01,0.017,0.02
297,0.05,0.071,0.05,0.054,0.049,0.449,0.465,0.465,0.329,0.333,0.012,0.02,0.011,0.011,0.019,0.009,0.016,0.02
298,0.032,0.055,0.036,0.038,0.036,0.354,0.363,0.364,0.254,0.26,0.009,0.018,0.01,0.01,0.016,0.009,0.013,0.02
299,0.023,0.046,0.026,0.028,0.028,0.278,0.286,0.287,0.199,0.205,0.009,0.016,0.011,0.011,0.015,0.01,0.012,0.021
300,0.017,0.04,0.02,0.023,0.023,0.218,0.225,0.225,0.156,0.161,0.009,0.016,0.012,0.012,0.016,0.011,0.014,0.02
301,0.013,0.036,0.018,0.019,0.019,0.173,0.179,0.179,0.123,0.127,0.009,0.016,0.011,0.012,0.017,0.011,0.016,0.02
302,0.01,0.032,0.016,0.016,0.016,0.14,0.144,0.142,0.1,0.102,0.008,0.015,0.011,0.012,0.017,0.011,0.015,0.018
303,0.008,0.028,0.012,0.014,0.015,0.113,0.117,0.118,0.081,0.084,0.004,0.014,0.01,0.01,0.017,0.009,0.012,0.018
304,0.007,0.027,0.009,0.013,0.014,0.095,0.099,0.101,0.069,0.072,0.004,0.015,0.011,0.01,0.018,0.007,0.012,0.018
305,0.006,0.026,0.008,0.013,0.014,0.083,0.086,0.09,0.059,0.062,0.005,0.016,0.011,0.01,0.016,0.008,0.015,0.022
306,0.006,0.025,0.009,0.012,0.013,0.075,0.077,0.08,0.052,0.055,0.007,0.016,0.01,0.01,0.016,0.007,0.017,0.022
307,0.007,0.025,0.008,0.01,0.011,0.067,0.07,0.072,0.045,0.05,0.007,0.013,0.009,0.008,0.015,0.006,0.014,0.019
308,0.006,0.024,0.007,0.008,0.011,0.06,0.066,0.065,0.042,0.047,0.007,0.011,0.008,0.007,0.013,0.006,0.01,0.017
309,0.004,0.023,0.008,0.009,0.011,0.057,0.063,0.063,0.041,0.045,0.005,0.01,0.009,0.008,0.014,0.006,0.008,0.015
310,0.003,0.022,0.009,0.009,0.012,0.056,0.062,0.065,0.042,0.045,0.005,0.012,0.01,0.009,0.013,0.006,0.007,0.016
311,0.002,0.021,0.008,0.009,0.012,0.056,0.062,0.063,0.042,0.045,0.004,0.013,0.01,0.009,0.013,0.007,0.008,0.014
312,0.004,0.022,0.007,0.009,0.011,0.055,0.061,0.063,0.042,0.046,0.006,0.013,0.01,0.008,0.011,0.007,0.009,0.015
313,0.005,0.024,0.007,0.009,0.01,0.055,0.062,0.061,0.041,0.045,0.008,0.012,0.009,0.007,0.012,0.007,0.011,0.017
314,0.005,0.024,0.009,0.01,0.01,0.057,0.062,0.064,0.041,0.045,0.01,0.011,0.009,0.008,0.014,0.008,0.013,0.018
315,0.006,0.023,0.009,0.009,0.01,0.056,0.061,0.065,0.039,0.042,0.009,0.012,0.008,0.008,0.016,0.009,0.014,0.019
316,0.005,0.02,0.01,0.008,0.01,0.053,0.059,0.064,0.038,0.04,0.006,0.012,0.007,0.007,0.014,0.008,0.011,0.016
317,0.004,0.019,0.009,0.006,0.009,0.05,0.057,0.063,0.036,0.039,0.007,0.012,0.006,0.005,0.011,0.008,0.007,0.015
318,0.004,0.018,0.009,0.004,0.008,0.051,0.057,0.062,0.036,0.039,0.006,0.011,0.006,0.004,0.009,0.007,0.007,0.015
319,0.002,0.017,0.006,0.004,0.007,0.05,0.057,0.062,0.036,0.039,0.004,0.009,0.006,0.005,0.008,0.005,0.005,0.013
320,0,0.017,0.004,0.005,0.008,0.051,0.057,0.062,0.038,0.04,0.004,0.01,0.008,0.006,0.011,0.005,0.008,0.014
321,-0.001,0.017,0.004,0.007,0.009,0.05,0.057,0.064,0.039,0.042,0.005,0.009,0.008,0.007,0.011,0.005,0.009,0.013
322,-0.001,0.014,0.004,0.007,0.009,0.05,0.058,0.062,0.039,0.043,0.006,0.009,0.007,0.007,0.012,0.007,0.008,0.013
323,0,0.015,0.005,0.007,0.009,0.051,0.059,0.061,0.038,0.042,0.005,0.01,0.005,0.006,0.013,0.006,0.008,0.012
324,-0.001,0.015,0.004,0.006,0.008,0.048,0.058,0.059,0.036,0.04,0.003,0.009,0.004,0.005,0.01,0.004,0.005,0.012
325,-0.002,0.018,0.005,0.007,0.008,0.048,0.057,0.061,0.037,0.039,0.004,0.012,0.005,0.005,0.012,0.005,0.009,0.015
326,0.001,0.019,0.009,0.007,0.009,0.049,0.056,0.065,0.038,0.039,0.008,0.013,0.006,0.006,0.012,0.008,0.012,0.018
327,0.002,0.017,0.009,0.004,0.008,0.048,0.055,0.064,0.037,0.038,0.009,0.013,0.005,0.006,0.012,0.01,0.013,0.019
328,0.002,0.019,0.008,0.004,0.008,0.047,0.055,0.062,0.035,0.037,0.007,0.01,0.005,0.005,0.011,0.01,0.01,0.017
329,0.001,0.016,0.007,0.004,0.007,0.044,0.053,0.058,0.032,0.036,0.003,0.008,0.005,0.004,0.009,0.007,0.006,0.014
330,0,0.014,0.004,0.004,0.007,0.043,0.052,0.057,0.032,0.036,-0.001,0.008,0.005,0.004,0.01,0.004,0.005,0.013
331,-0.002,0.012,0.004,0.005,0.006,0.042,0.051,0.056,0.032,0.036,-0.002,0.007,0.005,0.004,0.009,0.002,0.004,0.009
332,-0.003,0.012,0.004,0.005,0.007,0.043,0.052,0.052,0.033,0.036,-0.001,0.006,0.005,0.005,0.009,0.003,0.005,0.007
333,-0.003,0.017,0.006,0.007,0.008,0.045,0.054,0.053,0.034,0.037,0.002,0.009,0.007,0.006,0.01,0.006,0.007,0.009
334,0,0.018,0.009,0.008,0.009,0.048,0.053,0.056,0.035,0.039,0.003,0.011,0.008,0.007,0.012,0.008,0.009,0.012
335,0,0.017,0.006,0.005,0.008,0.045,0.052,0.056,0.033,0.037,0.002,0.01,0.006,0.005,0.011,0.006,0.01,0.015
336,0,0.013,0.004,0.003,0.006,0.041,0.049,0.055,0.032,0.035,0.003,0.007,0.003,0.003,0.009,0.005,0.008,0.014
337,0,0.011,0.004,0.003,0.007,0.039,0.049,0.053,0.032,0.033,0.004,0.005,0.003,0.004,0.012,0.005,0.008,0.014
338,0.001,0.011,0.005,0.007,0.008,0.04,0.049,0.051,0.031,0.034,0.006,0.005,0.005,0.006,0.011,0.005,0.006,0.015
339,0,0.013,0.007,0.009,0.009,0.04,0.047,0.048,0.03,0.034,0.006,0.006,0.008,0.006,0.008,0.005,0.003,0.015
340,-0.003,0.01,0.006,0.006,0.008,0.038,0.044,0.042,0.028,0.032,0.003,0.006,0.006,0.005,0.006,0.002,0.003,0.012
341,-0.004,0.009,0.005,0.005,0.006,0.036,0.043,0.041,0.026,0.03,0.001,0.006,0.004,0.003,0.006,0,0.002,0.01
342,-0.003,0.01,0.005,0.003,0.006,0.035,0.044,0.044,0.025,0.03,0.001,0.008,0.004,0.003,0.009,0,0.005,0.009
343,-0.002,0.012,0.007,0.004,0.007,0.034,0.044,0.045,0.025,0.029,0.001,0.007,0.004,0.005,0.01,0.002,0.006,0.01
344,-0.003,0.013,0.006,0.005,0.008,0.033,0.043,0.044,0.026,0.028,0.003,0.006,0.005,0.005,0.01,0.004,0.005,0.009
345,-0.004,0.011,0.002,0.005,0.006,0.032,0.039,0.039,0.025,0.026,0.001,0.004,0.004,0.005,0.009,0.001,0.002,0.007
346,-0.005,0.01,0.001,0.003,0.004,0.03,0.037,0.035,0.022,0.025,-0.001,0.003,0.004,0.003,0.007,0,0.001,0.006
347,-0.002,0.01,0.003,0.003,0.003,0.028,0.036,0.034,0.019,0.024,-0.001,0.003,0.003,0.002,0.008,0.004,0.001,0.008
348,0.001,0.01,0.008,0.004,0.006,0.027,0.037,0.038,0.019,0.025,0.003,0.005,0.005,0.004,0.01,0.008,0.004,0.012
349,0.001,0.01,0.01,0.006,0.006,0.028,0.035,0.04,0.018,0.024,0.005,0.006,0.005,0.005,0.012,0.009,0.006,0.012
350,-0.001,0.01,0.009,0.005,0.007,0.026,0.033,0.039,0.019,0.023,0.005,0.008,0.005,0.006,0.012,0.007,0.005,0.012
351,-0.003,0.01,0.006,0.004,0.008,0.025,0.032,0.036,0.019,0.023,0.002,0.008,0.006,0.005,0.009,0.002,0.005,0.012
352,-0.004,0.011,0.002,0.004,0.007,0.026,0.033,0.034,0.018,0.022,-0.002,0.007,0.004,0.004,0.009,-0.001,0.004,0.013
353,-0.004,0.012,0.002,0.005,0.007,0.025,0.033,0.034,0.019,0.022,-0.002,0.006,0.004,0.004,0.009,0.001,0.004,0.012
354,-0.003,0.011,0,0.004,0.006,0.023,0.029,0.031,0.017,0.02,-0.003,0.003,0.003,0.004,0.006,0.003,0.003,0.011
355,-0.002,0.012,0.001,0.004,0.006,0.019,0.028,0.031,0.016,0.019,0,0.004,0.004,0.005,0.006,0.006,0.003,0.011
356,-0.001,0.013,0.003,0.002,0.005,0.016,0.025,0.028,0.014,0.018,0.001,0.004,0.004,0.005,0.005,0.005,0.002,0.01
357,-0.001,0.012,0.004,0.002,0.005,0.015,0.024,0.026,0.012,0.017,0.002,0.005,0.003,0.005,0.005,0.002,0.002,0.011
358,0,0.012,0.004,0.002,0.006,0.015,0.023,0.027,0.012,0.017,0.003,0.006,0.003,0.005,0.005,0.004,0.001,0.011
359,-0.001,0.01,0.002,0.001,0.005,0.015,0.023,0.027,0.011,0.016,0.002,0.005,0.001,0.004,0.004,0.004,0.001,0.012
360,-0.001,0.013,0.003,0.002,0.005,0.014,0.023,0.028,0.011,0.015,0.003,0.005,0.003,0.005,0.005,0.006,0.003,0.013
361,0,0.015,0.005,0.003,0.005,0.015,0.023,0.028,0.012,0.015,0.003,0.005,0.004,0.005,0.007,0.005,0.005,0.013
362,0,0.015,0.006,0.005,0.007,0.014,0.023,0.025,0.011,0.014,0.002,0.006,0.005,0.006,0.009,0.002,0.004,0.012
363,0,0.013,0.005,0.004,0.008,0.015,0.022,0.025,0.011,0.014,0.003,0.008,0.004,0.006,0.011,0.002,0.004,0.013
364,0,0.01,0.004,0.002,0.008,0.016,0.02,0.025,0.009,0.014,0.003,0.008,0.003,0.004,0.011,0.003,0.005,0.013
365,0,0.009,0.005,0.003,0.009,0.015,0.019,0.023,0.009,0.015,0.001,0.007,0.005,0.005,0.011,0.006,0.007,0.012
366,0,0.01,0.008,0.004,0.008,0.014,0.02,0.022,0.01,0.016,0,0.007,0.007,0.006,0.009,0.005,0.008,0.012
367,-0.001,0.012,0.006,0.005,0.007,0.012,0.019,0.02,0.012,0.016,-0.003,0.007,0.006,0.006,0.008,0.003,0.007,0.011
368,-0.001,0.012,0.003,0.006,0.006,0.01,0.019,0.021,0.011,0.015,-0.001,0.007,0.005,0.005,0.008,0.002,0.007,0.012
369,0,0.013,0.003,0.007,0.007,0.01,0.018,0.022,0.012,0.013,-0.001,0.008,0.006,0.004,0.011,0.003,0.006,0.012
370,0.001,0.014,0.005,0.006,0.008,0.009,0.018,0.022,0.011,0.012,0.001,0.008,0.005,0.004,0.01,0.006,0.004,0.011
371,0.002,0.015,0.008,0.006,0.008,0.008,0.018,0.019,0.01,0.012,0.004,0.008,0.005,0.006,0.009,0.006,0.002,0.012
372,0.001,0.014,0.007,0.005,0.007,0.007,0.018,0.017,0.01,0.012,0.003,0.007,0.004,0.006,0.008,0.005,0.003,0.013
373,-0.001,0.011,0.006,0.005,0.006,0.005,0.017,0.016,0.007,0.01,0.002,0.005,0.004,0.005,0.007,0.002,0.003,0.012
374,-0.002,0.013,0.003,0.006,0.006,0.005,0.017,0.014,0.007,0.01,0,0.004,0.006,0.005,0.007,0,0.003,0.011
375,-0.001,0.015,0.003,0.005,0.006,0.004,0.015,0.011,0.006,0.01,0.001,0.003,0.007,0.005,0.006,0.001,0.003,0.009
376,-0.001,0.017,0.003,0.005,0.006,0.003,0.014,0.011,0.005,0.009,0.001,0.003,0.007,0.005,0.004,0.002,0.002,0.008
377,-0.001,0.015,0.005,0.005,0.007,0.004,0.013,0.014,0.006,0.008,0.001,0.004,0.005,0.005,0.004,0.004,0.003,0.011
378,0.001,0.012,0.007,0.005,0.006,0.005,0.013,0.017,0.005,0.007,0.003,0.005,0.005,0.004,0.005,0.005,0.002,0.012
379,0.001,0.012,0.006,0.006,0.006,0.008,0.015,0.018,0.006,0.009,0.004,0.007,0.005,0.005,0.008,0.004,0.004,0.014
380,0.002,0.014,0.006,0.005,0.007,0.008,0.015,0.017,0.007,0.009,0.005,0.009,0.005,0.004,0.011,0.005,0.008,0.015
381,0.001,0.016,0.005,0.005,0.007,0.007,0.014,0.016,0.006,0.008,0.004,0.007,0.007,0.004,0.009,0.006,0.007,0.013
382,0.001,0.015,0.005,0.005,0.008,0.006,0.012,0.015,0.005,0.007,0.002,0.004,0.007,0.004,0.008,0.007,0.005,0.012
383,-0.001,0.01,0.003,0.004,0.007,0.005,0.011,0.013,0.002,0.006,0,0.002,0.006,0.004,0.006,0.003,0,0.011
384,-0.002,0.008,0.002,0.003,0.006,0.005,0.012,0.011,0.002,0.007,-0.002,0.002,0.004,0.004,0.005,0,-0.001,0.009
385,-0.003,0.01,0.003,0.003,0.006,0.007,0.013,0.012,0.003,0.006,-0.001,0.004,0.002,0.003,0.006,-0.001,0.002,0.009
386,-0.003,0.012,0.002,0.004,0.006,0.008,0.012,0.011,0.003,0.006,0,0.003,0.003,0.002,0.007,-0.001,0.003,0.009
387,-0.001,0.013,0.002,0.004,0.006,0.006,0.013,0.011,0.003,0.007,0,0.002,0.004,0.003,0.007,0,0.001,0.009
388,-0.002,0.011,0.002,0.003,0.006,0.004,0.013,0.009,0.003,0.007,0,0.003,0.004,0.003,0.007,-0.001,0,0.009
389,-0.003,0.009,0.002,0.004,0.007,0.004,0.014,0.008,0.006,0.01,0,0.004,0.006,0.004,0.005,0,0.001,0.007
390,-0.004,0.011,0.001,0.003,0.007,0.004,0.014,0.009,0.008,0.01,-0.001,0.005,0.007,0.005,0.004,-0.001,0.002,0.009
391,-0.003,0.013,0,0.004,0.007,0.005,0.014,0.011,0.008,0.01,-0.001,0.005,0.007,0.005,0.004,0.001,0.003,0.011
392,0,0.016,0.002,0.004,0.007,0.006,0.015,0.015,0.009,0.011,-0.001,0.004,0.007,0.006,0.006,0.003,0.001,0.012
393,0.002,0.014,0.003,0.005,0.007,0.008,0.016,0.017,0.008,0.01,0,0.007,0.005,0.005,0.008,0.005,0.004,0.014
394,-0.001,0.011,0.002,0.005,0.007,0.006,0.013,0.016,0.004,0.008,0.001,0.007,0.004,0.004,0.008,0.004,0.004,0.013
395,-0.004,0.009,0,0.004,0.006,0.005,0.01,0.013,0.001,0.005,0.002,0.005,0.003,0.004,0.006,0.003,0.004,0.011
396,-0.004,0.009,0,0.003,0.005,0.005,0.011,0.009,0.001,0.005,0.002,0.004,0.004,0.005,0.006,0.003,0.002,0.008
397,-0.003,0.011,0.001,0.004,0.005,0.005,0.012,0.008,0.005,0.007,0.002,0.004,0.005,0.004,0.007,0,0.001,0.005
398,0,0.012,0.003,0.006,0.006,0.007,0.014,0.011,0.007,0.009,0.002,0.007,0.006,0.004,0.011,0.002,0.004,0.007
399,0,0.013,0.003,0.005,0.007,0.004,0.014,0.012,0.007,0.01,0.002,0.007,0.006,0.005,0.011,0.002,0.005,0.009
400,-0.001,0.013,0.003,0.004,0.007,0.003,0.015,0.015,0.006,0.011,0.001,0.003,0.006,0.005,0.009,0.004,0.006,0.012
401,-0.002,0.012,0,0.003,0.006,0.001,0.016,0.014,0.005,0.01,-0.002,0.001,0.005,0.005,0.006,0.001,0.004,0.012
402,-0.002,0.013,-0.001,0.005,0.006,0.001,0.016,0.014,0.006,0.01,-0.002,0,0.003,0.004,0.005,0.001,0.002,0.011
403,0,0.014,0.002,0.005,0.006,0.003,0.015,0.016,0.004,0.008,0,0.004,0.002,0.004,0.007,0.004,0.001,0.013
404,0.003,0.014,0.006,0.002,0.006,0.005,0.014,0.019,0.004,0.007,0.005,0.006,0.002,0.004,0.008,0.008,0.003,0.016
405,0.002,0.012,0.007,0.002,0.006,0.007,0.013,0.019,0.003,0.006,0.005,0.006,0.003,0.003,0.009,0.009,0.006,0.017
406,-0.001,0.011,0.006,0.004,0.007,0.006,0.013,0.017,0.004,0.007,0.003,0.006,0.004,0.004,0.009,0.007,0.006,0.014
407,-0.001,0.014,0.007,0.006,0.008,0.007,0.015,0.015,0.006,0.01,0.003,0.007,0.006,0.005,0.01,0.007,0.007,0.012
408,0.001,0.016,0.007,0.005,0.009,0.008,0.016,0.016,0.007,0.012,0.004,0.01,0.007,0.005,0.01,0.008,0.007,0.012
409,0.001,0.014,0.005,0.004,0.008,0.009,0.016,0.018,0.008,0.011,0.003,0.009,0.006,0.004,0.008,0.006,0.006,0.012
410,-0.003,0.009,0.001,0.002,0.005,0.004,0.014,0.016,0.004,0.007,-0.002,0.006,0.002,0.002,0.005,0,0.002,0.011
411,-0.005,0.006,0,0.002,0.005,0.002,0.011,0.013,0.001,0.005,-0.004,0.003,0,0.001,0.003,0,-0.001,0.01
412,-0.003,0.009,0.001,0.003,0.007,0.004,0.011,0.013,0.002,0.006,-0.001,0.004,0.003,0.003,0.003,0.003,0,0.01
413,0,0.011,0.002,0.005,0.009,0.007,0.013,0.013,0.004,0.008,0.005,0.008,0.006,0.005,0.005,0.006,0.004,0.01
414,0.001,0.014,0.004,0.006,0.008,0.009,0.015,0.013,0.006,0.011,0.005,0.009,0.007,0.005,0.007,0.005,0.005,0.011
415,-0.003,0.011,0.001,0.005,0.006,0.008,0.015,0.013,0.005,0.009,0.002,0.007,0.005,0.003,0.008,0.002,0.005,0.009
416,-0.003,0.011,0.002,0.004,0.005,0.007,0.014,0.01,0.005,0.008,-0.002,0.004,0.004,0.002,0.009,0.002,0.004,0.008
417,-0.003,0.013,0.002,0.003,0.006,0.005,0.015,0.012,0.006,0.008,-0.001,0.002,0.005,0.003,0.007,0.002,0.004,0.007
418,-0.003,0.013,0.002,0.002,0.006,0.006,0.016,0.013,0.006,0.009,0,0.004,0.005,0.002,0.007,0.003,0.004,0.009
419,-0.001,0.012,0.004,0.001,0.007,0.006,0.018,0.015,0.007,0.011,0.001,0.007,0.005,0.004,0.008,0.004,0.006,0.014
420,-0.003,0.01,0.001,0.001,0.007,0.006,0.017,0.014,0.008,0.011,0,0.008,0.005,0.005,0.009,0.003,0.008,0.012
421,-0.005,0.009,0,0.001,0.006,0.004,0.016,0.009,0.009,0.01,-0.001,0.006,0.006,0.005,0.007,0.002,0.004,0.008
422,-0.005,0.008,0,0.002,0.006,0.004,0.015,0.008,0.008,0.01,-0.001,0.005,0.007,0.004,0.008,0.002,0.003,0.006
423,-0.003,0.009,0.002,0.003,0.006,0.008,0.016,0.012,0.007,0.01,0,0.004,0.007,0.003,0.009,0.003,0.005,0.007
424,-0.002,0.011,0.002,0.004,0.006,0.007,0.016,0.015,0.006,0.008,0,0.003,0.006,0.004,0.008,0.004,0.005,0.012
425,-0.004,0.011,-0.002,0.004,0.005,0.005,0.014,0.013,0.005,0.007,-0.003,0.002,0.004,0.003,0.007,0.002,0.003,0.012
426,-0.008,0.011,-0.005,0.003,0.003,0.003,0.014,0.012,0.004,0.007,-0.005,0.003,0.002,0.001,0.006,-0.001,0.002,0.012
427,-0.007,0.01,-0.003,0.002,0.003,0.004,0.015,0.015,0.005,0.009,-0.004,0.006,0.001,0.001,0.008,-0.002,0.005,0.013
428,-0.003,0.011,0.002,0.003,0.005,0.003,0.014,0.015,0.005,0.009,0,0.005,0.003,0.003,0.006,-0.001,0.003,0.012
429,-0.001,0.009,0.005,0.002,0.005,0.002,0.013,0.013,0.003,0.008,0.001,0.002,0.004,0.004,0.004,0,0,0.011
430,-0.003,0.006,0.004,0,0.005,0.002,0.012,0.011,0.003,0.008,0.001,0.001,0.003,0.003,0.003,-0.001,-0.001,0.008
431,-0.006,0.004,-0.001,0.001,0.005,0.006,0.015,0.01,0.005,0.011,-0.003,0.002,0.004,0.002,0.006,-0.002,0.001,0.008
432,-0.007,0.005,-0.002,0.002,0.005,0.008,0.017,0.008,0.007,0.012,-0.005,0.001,0.005,0.001,0.006,-0.003,0.002,0.004
433,-0.005,0.007,-0.002,0.003,0.006,0.006,0.013,0.007,0.005,0.009,-0.003,0,0.005,0.002,0.006,-0.002,0.001,0.005
434,-0.001,0.01,0,0.004,0.005,0.005,0.01,0.01,0.001,0.005,-0.001,0.002,0.002,0.001,0.006,0.001,0.002,0.006
435,0,0.009,0.001,0.002,0.004,0.002,0.008,0.013,-0.001,0.003,0.001,0.004,0,0.001,0.003,0.002,0.001,0.009
436,-0.001,0.004,0.002,0.001,0.003,0.002,0.008,0.012,-0.001,0.003,0,0.004,0,0,0.001,0.001,0.001,0.009
437,-0.003,0.002,0.002,0,0.002,0.002,0.011,0.012,0,0.004,-0.001,0.002,0,-0.001,0.003,0,0,0.008
438,-0.001,0.003,0.004,0.002,0.004,0.002,0.012,0.013,0.001,0.006,0.003,0.001,0.002,0.001,0.005,0,0.001,0.009
439,0.001,0.008,0.005,0.004,0.008,0.005,0.014,0.015,0.003,0.009,0.005,0.003,0.006,0.005,0.007,0.002,0.003,0.01
440,-0.001,0.009,0.003,0.005,0.007,0.004,0.014,0.014,0.006,0.011,0.002,0.004,0.008,0.006,0.008,0.002,0.004,0.008
441,-0.005,0.006,-0.001,0.004,0.005,0.001,0.011,0.009,0.004,0.009,-0.005,0.001,0.006,0.004,0.004,-0.002,0.001,0.005
442,-0.008,0.004,-0.003,0.001,0.002,-0.003,0.008,0.008,-0.001,0.005,-0.007,-0.001,0.001,0,0.001,-0.002,-0.001,0.005
443,-0.006,0.004,-0.001,-0.001,0.004,-0.004,0.009,0.01,-0.002,0.004,-0.002,0,0,0.001,0,0,-0.001,0.008
444,-0.003,0.008,0.002,0.001,0.007,0.002,0.014,0.015,0.003,0.008,0.003,0.003,0.004,0.004,0.005,0.002,0.002,0.013
445,-0.002,0.009,0.003,0.003,0.009,0.004,0.016,0.015,0.008,0.011,0.003,0.005,0.007,0.006,0.006,0.001,0.002,0.01
446,-0.003,0.007,0.001,0.003,0.008,0.002,0.013,0.009,0.007,0.009,0,0.001,0.006,0.004,0.003,-0.002,-0.001,0.005
447,-0.006,0.002,-0.001,-0.003,0.004,-0.004,0.009,0.005,0.001,0.003,-0.004,-0.002,0.001,-0.001,0,-0.004,-0.005,0.001
448,-0.006,0.001,-0.002,-0.005,0.002,-0.005,0.008,0.002,-0.003,0,-0.003,-0.001,-0.002,-0.004,-0.002,-0.004,-0.005,0.001
449,-0.003,0.005,0.001,-0.004,0.003,-0.001,0.01,0.007,-0.001,0.002,-0.001,0.001,0,-0.002,0.001,0,-0.001,0.004
450,-0.002,0.008,0.003,-0.003,0.004,0.004,0.011,0.013,0.001,0.004,0.002,0.002,0.002,0,0.003,0.002,0.003,0.007
451,-0.003,0.007,0.004,-0.003,0.006,0.004,0.012,0.015,0.003,0.006,0.002,0.002,0.003,0.002,0.005,0.004,0.004,0.011
452,-0.005,0.006,0.002,0,0.007,0.001,0.012,0.013,0.004,0.006,0.001,0.002,0.004,0.003,0.004,0.002,0,0.01
453,-0.007,0.004,0,0.003,0.007,-0.002,0.011,0.008,0.005,0.007,-0.001,0,0.004,0.003,0.001,0,-0.003,0.005
454,-0.005,0.002,0.001,0.003,0.006,-0.002,0.012,0.005,0.006,0.007,-0.002,-0.001,0.004,0.003,0.001,0,-0.005,0.001
455,-0.006,-0.002,0.001,-0.003,0.002,-0.001,0.01,0.006,0.003,0.005,-0.003,-0.002,0,0,0.001,-0.003,-0.005,0.004
456,-0.006,-0.001,0,-0.003,0.002,-0.001,0.01,0.006,0.001,0.004,-0.002,-0.003,-0.001,-0.002,0.003,-0.005,-0.005,0.004
457,-0.01,0.003,-0.003,0.001,0.004,0.001,0.009,0.005,0.001,0.004,-0.004,-0.004,-0.001,-0.001,0.003,-0.008,-0.005,0.002
458,-0.014,0.002,-0.009,0.002,0.003,-0.001,0.009,0,0.002,0.007,-0.008,-0.008,0.001,-0.002,0,-0.01,-0.006,-0.004
459,-0.015,0.001,-0.011,0.001,0.003,-0.001,0.009,-0.002,0.004,0.009,-0.011,-0.007,0.003,-0.002,0,-0.009,-0.007,-0.006
460,-0.015,-0.001,-0.012,-0.002,0,-0.005,0.009,-0.002,0.004,0.008,-0.011,-0.008,0.002,-0.002,-0.004,-0.007,-0.01,-0.005
461,-0.009,0,-0.007,-0.003,0,-0.008,0.007,0.002,0,0.006,-0.007,-0.008,0.001,-0.003,-0.005,-0.004,-0.012,-0.001
462,-0.006,-0.001,-0.002,-0.003,0.002,-0.008,0.007,0.006,0,0.005,-0.002,-0.008,0.001,-0.001,-0.005,-0.001,-0.011,0.003
463,-0.004,0.001,0,-0.001,0.004,-0.005,0.007,0.01,0.001,0.006,-0.001,-0.004,0.003,0.001,-0.002,0.001,-0.006,0.007
464,-0.006,0.004,0,0.002,0.005,-0.003,0.008,0.011,0.001,0.007,-0.002,0.001,0.004,0.002,-0.001,0,-0.001,0.007
465,-0.004,0.004,0.004,0.003,0.003,-0.001,0.01,0.012,0,0.005,-0.001,0.004,0.003,0.002,0.001,0.003,0.002,0.006
466,-0.003,0.003,0.005,0.001,0.002,0.001,0.01,0.011,-0.002,0.003,0.002,0.006,-0.001,0,0.004,0.002,0.003,0.007
467,-0.001,0.003,0.008,0,0.004,0.006,0.013,0.013,0.002,0.006,0.006,0.008,-0.001,0,0.008,0.004,0.005,0.01
468,0,0.005,0.007,-0.001,0.004,0.007,0.014,0.013,0.004,0.008,0.006,0.008,0.002,0.002,0.01,0.002,0.004,0.013
469,-0.003,0.004,0.003,-0.001,0.003,0.002,0.012,0.011,0.004,0.009,0.003,0.005,0.003,0.001,0.007,0.002,0,0.013
470,-0.007,0.002,0,0.001,0.002,0.001,0.01,0.007,0.003,0.009,-0.001,0,0.003,0.001,0.005,-0.001,-0.002,0.009
471,-0.01,0.001,-0.004,0.002,0.002,0,0.007,0.003,0.001,0.005,-0.004,-0.003,0.001,0.001,0.003,-0.003,-0.003,0.005
472,-0.009,0.002,-0.005,0.002,0.004,0.003,0.008,0.003,0.001,0.004,-0.006,-0.002,0.001,0.003,0.004,-0.004,-0.002,0.002
473,-0.009,0.002,-0.007,0.001,0.004,0.001,0.01,0.001,0.001,0.004,-0.009,-0.003,0.002,0.003,0.002,-0.007,-0.005,0.001
474,-0.01,-0.001,-0.006,-0.001,0.003,-0.002,0.011,0.002,0.001,0.006,-0.01,-0.003,0.001,0.002,0,-0.007,-0.008,0.003
475,-0.011,0,-0.006,-0.003,0.002,-0.005,0.009,0.002,0.001,0.006,-0.006,-0.004,0.002,0.001,-0.001,-0.006,-0.009,0.002
476,-0.011,-0.001,-0.004,-0.004,0.002,-0.008,0.01,0.002,0.002,0.006,-0.005,-0.005,0.003,0.002,-0.003,-0.005,-0.011,0.002
477,-0.013,-0.002,-0.006,-0.003,0.001,-0.008,0.009,0.001,0.003,0.007,-0.007,-0.008,0.003,0.001,-0.004,-0.006,-0.012,0
478,-0.014,-0.003,-0.006,0,0,-0.006,0.009,0.001,0.004,0.008,-0.01,-0.01,0.003,0.001,-0.003,-0.007,-0.01,-0.001
479,-0.01,-0.002,-0.004,0.001,-0.001,-0.004,0.01,0.002,0.003,0.007,-0.008,-0.008,0.002,0.002,-0.002,-0.003,-0.008,0.002
480,-0.005,-0.002,-0.001,0.001,0.001,-0.006,0.008,0.005,0.002,0.004,-0.003,-0.007,0.001,0.003,-0.004,0.001,-0.009,0.002
481,-0.005,-0.003,0.001,-0.001,0.003,-0.008,0.008,0,0.002,0.006,-0.001,-0.009,0.004,0.005,-0.007,-0.001,-0.013,-0.001
482,-0.009,-0.003,-0.003,-0.003,0.004,-0.008,0.008,-0.006,0.002,0.008,-0.003,-0.011,0.005,0.004,-0.008,-0.006,-0.016,-0.007
483,-0.013,-0.001,-0.006,-0.002,0.003,-0.005,0.009,-0.006,0.002,0.007,-0.007,-0.011,0.004,0.001,-0.006,-0.011,-0.015,-0.008
484,-0.015,-0.004,-0.008,-0.003,0,-0.004,0.007,-0.002,-0.001,0.003,-0.01,-0.009,0,-0.002,-0.005,-0.012,-0.013,-0.003
485,-0.014,-0.01,-0.008,-0.003,-0.003,-0.008,0.002,0.004,-0.006,-0.002,-0.01,-0.008,-0.006,-0.006,-0.006,-0.011,-0.012,0.002
486,-0.015,-0.013,-0.008,-0.004,-0.003,-0.011,0.003,0.005,-0.005,-0.002,-0.01,-0.008,-0.008,-0.008,-0.008,-0.01,-0.011,0.002
487,-0.016,-0.011,-0.01,-0.005,-0.002,-0.011,0.006,0.004,-0.003,0,-0.012,-0.01,-0.007,-0.007,-0.009,-0.011,-0.012,0
488,-0.017,-0.01,-0.015,-0.007,-0.003,-0.012,0.006,-0.001,-0.003,0,-0.015,-0.014,-0.004,-0.007,-0.01,-0.013,-0.015,-0.007
489,-0.02,-0.014,-0.019,-0.01,-0.005,-0.014,0.001,-0.008,-0.006,-0.004,-0.02,-0.019,-0.006,-0.008,-0.013,-0.017,-0.018,-0.012
490,-0.021,-0.015,-0.018,-0.012,-0.006,-0.013,0,-0.01,-0.008,-0.005,-0.019,-0.018,-0.007,-0.008,-0.014,-0.018,-0.017,-0.013
491,-0.02,-0.012,-0.015,-0.011,-0.003,-0.013,0.001,-0.008,-0.007,-0.004,-0.016,-0.015,-0.006,-0.006,-0.012,-0.016,-0.016,-0.009
492,-0.018,-0.009,-0.011,-0.01,-0.002,-0.014,0.003,-0.003,-0.006,-0.003,-0.012,-0.012,-0.004,-0.002,-0.011,-0.012,-0.014,-0.006
493,-0.016,-0.011,-0.01,-0.008,-0.003,-0.015,0.003,-0.002,-0.006,-0.003,-0.011,-0.009,-0.004,-0.002,-0.011,-0.012,-0.015,-0.005
494,-0.014,-0.013,-0.009,-0.008,-0.004,-0.013,0.002,-0.001,-0.006,-0.003,-0.011,-0.008,-0.006,-0.004,-0.007,-0.011,-0.014,-0.004
495,-0.01,-0.011,-0.005,-0.009,-0.004,-0.009,0.002,0.001,-0.005,-0.001,-0.007,-0.006,-0.005,-0.004,-0.004,-0.008,-0.009,-0.001
496,-0.01,-0.01,-0.004,-0.01,-0.004,-0.009,0.001,0.001,-0.005,-0.001,-0.006,-0.006,-0.005,-0.004,-0.003,-0.007,-0.006,-0.001
497,-0.013,-0.009,-0.007,-0.011,-0.005,-0.013,0,0,-0.005,-0.002,-0.01,-0.01,-0.007,-0.005,-0.009,-0.008,-0.01,-0.003
498,-0.017,-0.011,-0.012,-0.012,-0.005,-0.016,0,-0.001,-0.005,-0.003,-0.014,-0.013,-0.007,-0.005,-0.013,-0.01,-0.015,-0.005
499,-0.016,-0.016,-0.011,-0.013,-0.004,-0.017,0.001,-0.001,-0.005,-0.004,-0.014,-0.016,-0.006,-0.005,-0.014,-0.012,-0.019,-0.004
500,-0.017,-0.018,-0.011,-0.013,-0.003,-0.019,0,-0.004,-0.006,-0.004,-0.014,-0.019,-0.005,-0.005,-0.015,-0.014,-0.022,-0.006
501,-0.015,-0.017,-0.009,-0.009,-0.003,-0.019,0,-0.006,-0.007,-0.004,-0.012,-0.016,-0.004,-0.005,-0.015,-0.014,-0.021,-0.008
502,-0.011,-0.014,-0.006,-0.009,-0.002,-0.014,0.001,-0.002,-0.006,-0.002,-0.01,-0.011,-0.004,-0.004,-0.01,-0.009,-0.016,-0.003
503,-0.009,-0.011,-0.005,-0.008,-0.001,-0.008,0.006,0.005,-0.003,0.001,-0.006,-0.006,-0.002,-0.001,-0.003,-0.005,-0.008,0.003
504,-0.012,-0.015,-0.009,-0.01,-0.002,-0.008,0.008,0.005,-0.002,0.001,-0.01,-0.008,-0.003,-0.001,0,-0.008,-0.008,0.002
505,-0.016,-0.017,-0.016,-0.009,-0.002,-0.01,0.009,0,-0.001,0.001,-0.015,-0.011,-0.003,0,-0.003,-0.013,-0.011,-0.003
506,-0.019,-0.02,-0.017,-0.009,-0.002,-0.012,0.005,-0.003,-0.004,-0.002,-0.018,-0.011,-0.005,-0.003,-0.009,-0.015,-0.016,-0.008
507,-0.017,-0.023,-0.015,-0.012,-0.004,-0.013,0.001,-0.003,-0.007,-0.005,-0.016,-0.012,-0.008,-0.006,-0.011,-0.015,-0.017,-0.006
508,-0.019,-0.023,-0.016,-0.014,-0.005,-0.014,0.001,-0.004,-0.006,-0.004,-0.016,-0.014,-0.008,-0.007,-0.011,-0.016,-0.016,-0.005
509,-0.02,-0.019,-0.015,-0.014,-0.005,-0.013,0.004,-0.001,-0.002,0,-0.016,-0.013,-0.006,-0.006,-0.009,-0.017,-0.014,-0.003
510,-0.021,-0.015,-0.018,-0.012,-0.004,-0.012,0.005,-0.001,-0.001,0.001,-0.018,-0.011,-0.005,-0.004,-0.009,-0.017,-0.012,-0.003
511,-0.023,-0.016,-0.019,-0.01,-0.004,-0.012,0.004,0.001,-0.003,0,-0.02,-0.01,-0.004,-0.005,-0.008,-0.016,-0.011,-0.003
512,-0.021,-0.019,-0.017,-0.01,-0.004,-0.013,0.004,-0.001,-0.003,0,-0.017,-0.013,-0.004,-0.006,-0.01,-0.016,-0.015,-0.003
513,-0.018,-0.024,-0.013,-0.014,-0.004,-0.016,0.003,-0.003,-0.003,0,-0.013,-0.015,-0.004,-0.007,-0.013,-0.012,-0.018,-0.003
514,-0.014,-0.023,-0.007,-0.015,-0.005,-0.019,0.003,-0.002,-0.004,-0.001,-0.009,-0.015,-0.005,-0.007,-0.015,-0.009,-0.02,-0.004
515,-0.012,-0.022,-0.006,-0.015,-0.005,-0.022,0,-0.003,-0.007,-0.003,-0.009,-0.016,-0.005,-0.006,-0.017,-0.008,-0.021,-0.005
516,-0.014,-0.02,-0.007,-0.012,-0.004,-0.021,0.001,-0.002,-0.007,-0.002,-0.011,-0.016,-0.004,-0.003,-0.016,-0.01,-0.02,-0.006
517,-0.016,-0.022,-0.008,-0.014,-0.004,-0.021,0.002,-0.004,-0.007,-0.003,-0.013,-0.017,-0.005,-0.005,-0.015,-0.011,-0.019,-0.006
518,-0.016,-0.026,-0.011,-0.018,-0.006,-0.021,0,-0.006,-0.008,-0.007,-0.015,-0.016,-0.009,-0.008,-0.017,-0.012,-0.019,-0.006
519,-0.018,-0.028,-0.015,-0.021,-0.008,-0.025,-0.003,-0.01,-0.009,-0.008,-0.018,-0.018,-0.009,-0.01,-0.019,-0.015,-0.022,-0.008
520,-0.021,-0.025,-0.017,-0.016,-0.008,-0.025,-0.003,-0.011,-0.008,-0.006,-0.018,-0.02,-0.007,-0.008,-0.017,-0.016,-0.022,-0.009
521,-0.022,-0.025,-0.017,-0.012,-0.009,-0.027,-0.006,-0.009,-0.01,-0.007,-0.019,-0.023,-0.007,-0.008,-0.02,-0.017,-0.022,-0.01
522,-0.02,-0.025,-0.015,-0.011,-0.007,-0.025,-0.006,-0.006,-0.012,-0.008,-0.017,-0.025,-0.009,-0.01,-0.02,-0.016,-0.022,-0.01
523,-0.017,-0.024,-0.013,-0.014,-0.007,-0.022,-0.005,-0.005,-0.011,-0.008,-0.016,-0.022,-0.01,-0.011,-0.019,-0.015,-0.021,-0.009
524,-0.014,-0.019,-0.011,-0.014,-0.005,-0.02,-0.003,-0.004,-0.009,-0.007,-0.013,-0.021,-0.008,-0.009,-0.018,-0.011,-0.022,-0.006
525,-0.016,-0.017,-0.01,-0.013,-0.005,-0.021,-0.004,-0.005,-0.009,-0.008,-0.01,-0.017,-0.007,-0.007,-0.017,-0.01,-0.019,-0.005
526,-0.017,-0.017,-0.011,-0.013,-0.006,-0.023,-0.005,-0.004,-0.011,-0.009,-0.012,-0.018,-0.009,-0.009,-0.018,-0.012,-0.021,-0.004
527,-0.02,-0.016,-0.013,-0.011,-0.006,-0.022,-0.003,-0.003,-0.01,-0.008,-0.014,-0.018,-0.009,-0.01,-0.015,-0.015,-0.02,-0.004
528,-0.019,-0.016,-0.014,-0.011,-0.006,-0.019,-0.001,-0.002,-0.008,-0.007,-0.016,-0.019,-0.007,-0.01,-0.014,-0.017,-0.021,-0.005
529,-0.024,-0.024,-0.019,-0.016,-0.009,-0.025,-0.007,-0.007,-0.013,-0.011,-0.022,-0.023,-0.01,-0.013,-0.019,-0.022,-0.026,-0.011
530,-0.028,-0.033,-0.022,-0.021,-0.014,-0.033,-0.014,-0.013,-0.017,-0.016,-0.027,-0.03,-0.014,-0.015,-0.027,-0.025,-0.033,-0.015
531,-0.027,-0.035,-0.021,-0.022,-0.014,-0.035,-0.016,-0.013,-0.018,-0.016,-0.026,-0.033,-0.017,-0.015,-0.03,-0.024,-0.034,-0.016
532,-0.023,-0.029,-0.016,-0.02,-0.011,-0.03,-0.013,-0.006,-0.016,-0.013,-0.021,-0.029,-0.015,-0.013,-0.023,-0.02,-0.027,-0.011
533,-0.02,-0.028,-0.014,-0.019,-0.011,-0.025,-0.009,-0.003,-0.016,-0.013,-0.02,-0.024,-0.014,-0.014,-0.019,-0.019,-0.021,-0.007
534,-0.024,-0.033,-0.018,-0.022,-0.015,-0.027,-0.009,-0.005,-0.017,-0.017,-0.023,-0.023,-0.017,-0.018,-0.021,-0.02,-0.022,-0.008
535,-0.024,-0.033,-0.021,-0.02,-0.015,-0.028,-0.008,-0.007,-0.015,-0.015,-0.025,-0.022,-0.017,-0.016,-0.023,-0.02,-0.023,-0.009
536,-0.02,-0.028,-0.018,-0.016,-0.01,-0.024,-0.004,-0.006,-0.01,-0.01,-0.023,-0.021,-0.012,-0.012,-0.02,-0.018,-0.024,-0.009
537,-0.019,-0.026,-0.018,-0.015,-0.008,-0.022,-0.002,-0.006,-0.008,-0.007,-0.019,-0.02,-0.009,-0.009,-0.016,-0.016,-0.023,-0.008
538,-0.019,-0.026,-0.017,-0.016,-0.009,-0.025,-0.005,-0.008,-0.01,-0.009,-0.016,-0.022,-0.011,-0.01,-0.018,-0.016,-0.025,-0.009
539,-0.022,-0.03,-0.018,-0.018,-0.011,-0.028,-0.009,-0.01,-0.013,-0.011,-0.018,-0.025,-0.014,-0.013,-0.022,-0.019,-0.027,-0.011
540,-0.02,-0.027,-0.016,-0.015,-0.009,-0.026,-0.007,-0.005,-0.012,-0.01,-0.018,-0.024,-0.013,-0.012,-0.019,-0.019,-0.023,-0.008
541,-0.02,-0.026,-0.017,-0.015,-0.007,-0.024,-0.008,-0.002,-0.013,-0.011,-0.019,-0.023,-0.012,-0.012,-0.019,-0.018,-0.023,-0.006
542,-0.022,-0.031,-0.021,-0.021,-0.011,-0.03,-0.013,-0.01,-0.016,-0.014,-0.023,-0.027,-0.015,-0.014,-0.025,-0.02,-0.03,-0.011
543,-0.022,-0.033,-0.022,-0.026,-0.012,-0.033,-0.013,-0.012,-0.017,-0.015,-0.023,-0.028,-0.016,-0.013,-0.026,-0.02,-0.031,-0.011
544,-0.022,-0.034,-0.02,-0.026,-0.012,-0.03,-0.009,-0.009,-0.016,-0.013,-0.021,-0.026,-0.014,-0.013,-0.022,-0.019,-0.031,-0.01
545,-0.02,-0.033,-0.019,-0.023,-0.011,-0.027,-0.008,-0.005,-0.016,-0.013,-0.02,-0.021,-0.013,-0.014,-0.021,-0.018,-0.028,-0.008
546,-0.022,-0.034,-0.02,-0.025,-0.013,-0.028,-0.01,-0.007,-0.017,-0.014,-0.023,-0.023,-0.014,-0.017,-0.025,-0.023,-0.029,-0.011
547,-0.023,-0.034,-0.02,-0.024,-0.014,-0.029,-0.011,-0.007,-0.018,-0.014,-0.023,-0.025,-0.015,-0.016,-0.026,-0.024,-0.028,-0.013
548,-0.021,-0.031,-0.017,-0.018,-0.012,-0.029,-0.009,-0.006,-0.016,-0.012,-0.018,-0.025,-0.014,-0.013,-0.024,-0.021,-0.025,-0.009
549,-0.024,-0.03,-0.02,-0.016,-0.012,-0.032,-0.01,-0.009,-0.016,-0.014,-0.02,-0.027,-0.013,-0.012,-0.025,-0.021,-0.027,-0.01
550,-0.029,-0.032,-0.025,-0.019,-0.014,-0.036,-0.01,-0.012,-0.015,-0.015,-0.025,-0.03,-0.015,-0.015,-0.027,-0.024,-0.029,-0.015
551,-0.028,-0.031,-0.025,-0.021,-0.012,-0.036,-0.013,-0.011,-0.014,-0.013,-0.028,-0.031,-0.015,-0.015,-0.029,-0.024,-0.03,-0.011
552,-0.025,-0.031,-0.021,-0.021,-0.012,-0.033,-0.015,-0.006,-0.016,-0.013,-0.026,-0.029,-0.016,-0.016,-0.028,-0.022,-0.029,-0.008
553,-0.023,-0.028,-0.019,-0.022,-0.012,-0.03,-0.014,-0.004,-0.018,-0.016,-0.022,-0.026,-0.018,-0.015,-0.028,-0.02,-0.027,-0.007
554,-0.024,-0.031,-0.02,-0.027,-0.015,-0.032,-0.011,-0.008,-0.018,-0.017,-0.023,-0.027,-0.02,-0.016,-0.028,-0.022,-0.029,-0.013
555,-0.024,-0.031,-0.021,-0.025,-0.014,-0.031,-0.008,-0.011,-0.015,-0.015,-0.022,-0.028,-0.018,-0.016,-0.027,-0.024,-0.027,-0.016
556,-0.023,-0.031,-0.017,-0.022,-0.012,-0.031,-0.009,-0.01,-0.014,-0.013,-0.022,-0.026,-0.015,-0.015,-0.025,-0.022,-0.028,-0.013
557,-0.024,-0.03,-0.017,-0.02,-0.01,-0.028,-0.01,-0.007,-0.013,-0.012,-0.021,-0.023,-0.013,-0.014,-0.025,-0.021,-0.027,-0.01
558,-0.026,-0.029,-0.018,-0.02,-0.01,-0.028,-0.009,-0.009,-0.013,-0.011,-0.021,-0.024,-0.014,-0.015,-0.023,-0.021,-0.03,-0.009
559,-0.026,-0.031,-0.022,-0.018,-0.011,-0.03,-0.006,-0.012,-0.012,-0.01,-0.021,-0.025,-0.013,-0.012,-0.021,-0.02,-0.029,-0.008
560,-0.027,-0.032,-0.022,-0.017,-0.013,-0.033,-0.009,-0.011,-0.015,-0.011,-0.022,-0.028,-0.012,-0.011,-0.023,-0.02,-0.029,-0.007
561,-0.026,-0.028,-0.02,-0.019,-0.012,-0.032,-0.011,-0.009,-0.017,-0.014,-0.023,-0.027,-0.012,-0.01,-0.025,-0.019,-0.029,-0.008
562,-0.024,-0.028,-0.02,-0.021,-0.012,-0.032,-0.013,-0.01,-0.017,-0.017,-0.023,-0.026,-0.014,-0.011,-0.026,-0.018,-0.028,-0.008
563,-0.021,-0.027,-0.021,-0.02,-0.012,-0.03,-0.012,-0.008,-0.015,-0.016,-0.022,-0.028,-0.015,-0.011,-0.026,-0.018,-0.029,-0.008
564,-0.017,-0.027,-0.017,-0.015,-0.01,-0.027,-0.01,-0.004,-0.012,-0.011,-0.018,-0.025,-0.013,-0.01,-0.024,-0.013,-0.026,-0.004
565,-0.015,-0.027,-0.015,-0.015,-0.009,-0.024,-0.009,0.001,-0.012,-0.01,-0.017,-0.023,-0.013,-0.011,-0.021,-0.013,-0.024,0
566,-0.016,-0.026,-0.015,-0.018,-0.01,-0.026,-0.009,0.001,-0.014,-0.011,-0.021,-0.023,-0.015,-0.015,-0.023,-0.016,-0.027,-0.003
567,-0.021,-0.031,-0.015,-0.021,-0.012,-0.028,-0.01,-0.005,-0.017,-0.012,-0.027,-0.026,-0.018,-0.018,-0.024,-0.023,-0.029,-0.01
568,-0.026,-0.035,-0.019,-0.024,-0.015,-0.032,-0.011,-0.008,-0.019,-0.015,-0.029,-0.029,-0.021,-0.019,-0.026,-0.026,-0.031,-0.015
569,-0.025,-0.032,-0.02,-0.022,-0.016,-0.032,-0.012,-0.008,-0.02,-0.017,-0.026,-0.028,-0.021,-0.018,-0.027,-0.024,-0.03,-0.013
570,-0.019,-0.024,-0.017,-0.022,-0.015,-0.031,-0.012,-0.003,-0.02,-0.02,-0.019,-0.023,-0.019,-0.016,-0.025,-0.021,-0.027,-0.01
571,-0.014,-0.021,-0.012,-0.021,-0.01,-0.029,-0.01,0,-0.018,-0.017,-0.014,-0.021,-0.013,-0.012,-0.024,-0.016,-0.025,-0.006
572,-0.016,-0.026,-0.01,-0.021,-0.01,-0.032,-0.011,-0.004,-0.016,-0.016,-0.015,-0.024,-0.013,-0.012,-0.024,-0.016,-0.03,-0.006
573,-0.02,-0.029,-0.015,-0.019,-0.011,-0.034,-0.009,-0.005,-0.015,-0.013,-0.017,-0.025,-0.014,-0.013,-0.023,-0.016,-0.03,-0.003
574,-0.019,-0.029,-0.014,-0.017,-0.01,-0.03,-0.005,-0.001,-0.01,-0.008,-0.016,-0.021,-0.012,-0.011,-0.02,-0.014,-0.023,-0.001
575,-0.018,-0.025,-0.011,-0.015,-0.008,-0.026,-0.005,0.001,-0.008,-0.005,-0.014,-0.018,-0.01,-0.006,-0.018,-0.013,-0.019,-0.003
576,-0.02,-0.025,-0.014,-0.017,-0.008,-0.029,-0.01,-0.005,-0.009,-0.007,-0.014,-0.022,-0.008,-0.004,-0.02,-0.014,-0.022,-0.007
577,-0.021,-0.03,-0.02,-0.023,-0.013,-0.034,-0.016,-0.011,-0.017,-0.017,-0.02,-0.031,-0.014,-0.011,-0.023,-0.019,-0.029,-0.014
578,-0.019,-0.031,-0.02,-0.028,-0.016,-0.033,-0.018,-0.01,-0.022,-0.021,-0.019,-0.028,-0.018,-0.015,-0.024,-0.016,-0.028,-0.011
579,-0.015,-0.031,-0.012,-0.027,-0.014,-0.029,-0.013,-0.004,-0.018,-0.019,-0.019,-0.022,-0.018,-0.016,-0.021,-0.015,-0.026,-0.008
580,-0.017,-0.033,-0.012,-0.024,-0.012,-0.025,-0.007,-0.001,-0.011,-0.011,-0.018,-0.018,-0.014,-0.014,-0.018,-0.02,-0.024,-0.007
581,-0.023,-0.035,-0.019,-0.019,-0.009,-0.025,-0.002,-0.002,-0.009,-0.009,-0.02,-0.021,-0.011,-0.011,-0.016,-0.023,-0.024,-0.007
582,-0.026,-0.029,-0.022,-0.016,-0.01,-0.026,-0.003,-0.002,-0.01,-0.01,-0.02,-0.022,-0.012,-0.011,-0.02,-0.022,-0.026,-0.008
583,-0.024,-0.025,-0.02,-0.018,-0.011,-0.029,-0.005,-0.003,-0.016,-0.014,-0.019,-0.022,-0.014,-0.012,-0.022,-0.015,-0.025,-0.005
584,-0.019,-0.022,-0.016,-0.017,-0.01,-0.024,-0.004,-0.001,-0.013,-0.011,-0.017,-0.02,-0.011,-0.01,-0.016,-0.01,-0.021,-0.004
585,-0.019,-0.026,-0.017,-0.017,-0.009,-0.022,-0.006,-0.004,-0.01,-0.009,-0.017,-0.021,-0.012,-0.011,-0.013,-0.013,-0.017,-0.008
586,-0.018,-0.027,-0.017,-0.015,-0.008,-0.023,-0.007,-0.006,-0.011,-0.01,-0.017,-0.022,-0.014,-0.013,-0.016,-0.016,-0.018,-0.01
587,-0.019,-0.03,-0.017,-0.017,-0.009,-0.025,-0.008,-0.01,-0.012,-0.012,-0.019,-0.021,-0.014,-0.014,-0.021,-0.019,-0.023,-0.009
588,-0.016,-0.029,-0.016,-0.018,-0.008,-0.024,-0.008,-0.012,-0.011,-0.013,-0.018,-0.021,-0.012,-0.012,-0.02,-0.017,-0.021,-0.008
589,-0.016,-0.022,-0.019,-0.016,-0.006,-0.02,-0.005,-0.008,-0.011,-0.011,-0.02,-0.018,-0.011,-0.01,-0.015,-0.018,-0.019,-0.007
590,-0.017,-0.018,-0.019,-0.013,-0.006,-0.02,-0.006,-0.008,-0.013,-0.013,-0.023,-0.017,-0.012,-0.011,-0.014,-0.017,-0.019,-0.005
591,-0.016,-0.018,-0.017,-0.013,-0.007,-0.021,-0.005,-0.007,-0.014,-0.013,-0.021,-0.017,-0.012,-0.013,-0.016,-0.015,-0.02,-0.002
592,-0.018,-0.024,-0.015,-0.015,-0.006,-0.022,-0.004,-0.006,-0.011,-0.011,-0.017,-0.015,-0.009,-0.01,-0.016,-0.014,-0.019,-0.002
593,-0.018,-0.027,-0.013,-0.014,-0.006,-0.02,-0.006,-0.007,-0.014,-0.01,-0.01,-0.011,-0.009,-0.009,-0.015,-0.017,-0.018,-0.002
594,-0.016,-0.021,-0.014,-0.01,-0.007,-0.019,-0.008,-0.005,-0.018,-0.01,-0.01,-0.012,-0.009,-0.008,-0.014,-0.019,-0.018,-0.003
595,-0.011,-0.016,-0.011,-0.009,-0.006,-0.017,-0.006,-0.002,-0.017,-0.011,-0.014,-0.011,-0.008,-0.009,-0.015,-0.017,-0.016,-0.003
596,-0.005,-0.012,-0.007,-0.009,-0.003,-0.013,0.003,0.006,-0.007,-0.004,-0.012,-0.007,-0.004,-0.005,-0.01,-0.009,-0.012,0.004
597,-0.008,-0.015,-0.004,-0.01,-0.002,-0.009,0.009,0.01,0.002,0.003,-0.01,-0.003,-0.001,-0.004,-0.005,-0.007,-0.01,0.007
598,-0.011,-0.022,-0.008,-0.011,-0.003,-0.009,0.009,0.006,0.004,0.007,-0.009,-0.003,-0.002,-0.004,-0.007,-0.007,-0.013,0.007
599,-0.015,-0.028,-0.014,-0.009,-0.004,-0.015,0.006,-0.001,0,0.003,-0.013,-0.005,-0.007,-0.006,-0.012,-0.015,-0.019,-0.002
600,-0.021,-0.028,-0.022,-0.01,-0.007,-0.019,-0.001,-0.008,-0.006,-0.004,-0.022,-0.012,-0.013,-0.011,-0.016,-0.024,-0.023,-0.01
601,-0.021,-0.014,-0.023,-0.006,-0.007,-0.016,0.002,-0.009,-0.007,-0.004,-0.028,-0.013,-0.011,-0.009,-0.011,-0.02,-0.019,-0.009
602,-0.018,-0.006,-0.018,-0.006,-0.005,-0.011,0.004,-0.006,-0.004,-0.001,-0.022,-0.014,-0.005,-0.007,-0.007,-0.011,-0.013,-0.004
603,-0.011,-0.005,-0.012,-0.005,-0.002,-0.011,0.006,-0.002,-0.003,0.002,-0.013,-0.01,-0.003,-0.005,-0.005,-0.002,-0.01,0
604,-0.008,-0.008,-0.011,-0.004,0,-0.016,0.003,-0.001,-0.007,-0.003,-0.008,-0.01,-0.005,-0.004,-0.006,-0.002,-0.015,-0.003
605,-0.015,-0.01,-0.015,-0.002,-0.001,-0.021,0.001,-0.005,-0.01,-0.005,-0.014,-0.014,-0.005,-0.003,-0.011,-0.008,-0.021,-0.008
606,-0.012,-0.007,-0.013,0,-0.001,-0.011,0.004,-0.001,-0.004,-0.002,-0.015,-0.01,0,0.002,-0.008,-0.009,-0.015,-0.005
607,-0.005,-0.004,-0.004,0.002,0,-0.001,0.012,0.011,0.003,0.005,-0.006,-0.002,0.003,0.004,0.001,-0.004,-0.002,0.006
608,-0.002,0,0.002,0.006,0.001,0.005,0.017,0.019,0.006,0.012,0.001,0.002,0.003,0.003,0.009,0.001,0.004,0.013
609,-0.004,0.004,0.003,0.006,0.002,0.007,0.017,0.018,0.008,0.014,0.005,0.006,0.003,0.001,0.012,0.001,0.003,0.013
610,-0.004,0.002,0.003,-0.001,0,0.003,0.011,0.015,0.004,0.009,0.004,0.007,0.001,-0.002,0.008,0.002,0.001,0.012
611,0,-0.004,0.003,-0.005,-0.001,-0.002,0.005,0.014,0,0.003,0.007,0.003,-0.003,-0.003,0.003,0.005,-0.001,0.016
612,-0.003,-0.004,0.001,-0.005,0,-0.005,0.004,0.017,-0.002,0.001,0.008,-0.002,-0.005,-0.004,-0.002,0.005,-0.003,0.018
613,-0.012,-0.003,-0.003,-0.003,0,-0.003,0.008,0.016,0.001,0.004,0.002,-0.007,-0.006,-0.006,0.001,-0.001,-0.003,0.012
614,-0.013,0.002,-0.002,0.001,0.002,-0.001,0.01,0.014,0.003,0.007,-0.002,-0.007,-0.004,-0.005,0.002,-0.006,-0.004,0.003
615,-0.011,0.005,-0.005,0.004,0.001,-0.001,0.011,0.007,0.006,0.008,-0.008,-0.007,-0.002,-0.003,0.001,-0.008,-0.008,0.001
616,-0.012,0.005,-0.006,0.001,0.003,-0.002,0.014,0.001,0.008,0.009,-0.009,-0.003,0.003,-0.001,0,-0.009,-0.008,0.003
617,-0.009,0.002,-0.005,-0.004,0.006,-0.004,0.015,0.002,0.009,0.011,-0.007,0.002,0.005,-0.001,-0.003,-0.006,-0.006,0.006
618,-0.003,0.007,-0.002,-0.002,0.007,-0.005,0.012,0.007,0.006,0.007,-0.005,0.005,0.003,0,-0.001,-0.003,-0.008,0.008
619,0.004,0.013,0.003,0.001,0.008,0.004,0.01,0.016,0.001,0.003,0.001,0.006,0.002,0.001,0.004,0.003,-0.004,0.014
620,0.003,0.013,0.003,0.003,0.005,0.009,0.009,0.018,0,0,0.003,0.005,0,0,0.009,0.004,-0.003,0.017
621,0.001,0.013,0.004,0.002,0.004,0.012,0.01,0.024,0.002,0.005,0.005,0.006,0.001,-0.001,0.011,0.006,0.005,0.023
622,0.004,0.013,0.009,0.004,0.004,0.008,0.011,0.027,0.003,0.008,0.009,0.008,0.001,0,0.009,0.011,0.01,0.028
623,0.002,0.011,0.004,0.001,0.001,0.002,0.008,0.023,-0.001,0.005,0.005,0.008,-0.004,-0.003,0.008,0.007,0.01,0.027
624,-0.004,0.009,-0.005,-0.001,-0.002,-0.001,0.004,0.014,-0.005,0.002,-0.001,0.003,-0.008,-0.008,0.003,0.001,0.001,0.017
625,-0.002,0.009,-0.006,0,-0.005,-0.002,0.004,0.013,-0.005,0,-0.005,0.005,-0.007,-0.012,0.002,-0.002,-0.005,0.015
626,0.002,0.009,0.001,0.004,0.001,0.003,0.005,0.023,-0.002,0.001,0.002,0.01,-0.004,-0.008,0.006,0.004,0.001,0.017
627,0.007,0.005,0.004,0.006,0.006,0.007,0.006,0.029,0,0.002,0.005,0.015,-0.001,-0.001,0.011,0.007,0.008,0.02
628,0.007,0.007,0.002,0.008,0.007,0.013,0.009,0.029,0.005,0.006,0.007,0.019,0.001,0.003,0.016,0.009,0.015,0.02
629,0.007,0.006,0.004,0.006,0.004,0.01,0.011,0.022,0.006,0.008,0.007,0.018,0.002,0.001,0.013,0.007,0.014,0.019
630,0.003,0.005,0.006,0.003,0.002,0.004,0.014,0.014,0.005,0.009,0.006,0.012,0.003,0.002,0.006,0.005,0.005,0.012
631,-0.004,0.001,0.004,-0.002,0.001,-0.003,0.011,0.005,0.002,0.006,0.003,0,0.002,0.003,0.001,0.002,-0.009,0.001
632,-0.007,0.002,-0.001,0,0.003,-0.003,0.012,0.001,0.003,0.006,0.001,-0.004,0.006,0.005,0,0.001,-0.011,-0.001
633,-0.006,0.006,-0.002,0.009,0.009,0.006,0.018,0.003,0.009,0.01,-0.003,0,0.012,0.009,0.008,-0.002,-0.003,-0.001
634,-0.008,0.01,-0.007,0.015,0.011,0.01,0.022,0.004,0.014,0.014,-0.007,0.004,0.013,0.01,0.014,-0.004,0.003,0.001
635,-0.009,0.01,-0.009,0.012,0.009,0.007,0.018,0.005,0.011,0.013,-0.008,0.002,0.009,0.007,0.011,-0.004,0.002,0.006
636,-0.008,0.01,-0.006,0.008,0.005,-0.001,0.009,0.007,0.004,0.007,-0.007,-0.007,0.004,0.003,0.004,-0.001,-0.004,0.011
637,-0.007,0.007,-0.008,0.006,0.004,-0.006,0.008,0.006,0.003,0.006,-0.006,-0.014,0.005,0.002,-0.001,-0.003,-0.008,0.008
638,-0.002,0.002,-0.009,0.005,0.006,-0.007,0.013,0.002,0.006,0.009,-0.008,-0.011,0.005,0.002,-0.003,-0.004,-0.009,0
639,0.004,0,-0.008,0.002,0.004,-0.006,0.015,-0.003,0.009,0.012,-0.007,-0.003,0.003,0,-0.002,0,-0.01,-0.005
640,0.008,0.001,0.004,0,0.001,-0.004,0.014,-0.002,0.006,0.009,0.002,0.003,0.001,-0.002,0.002,0.01,-0.008,-0.004
641,0.007,0.006,0.017,0.001,0,-0.003,0.013,0.001,0.005,0.007,0.012,0.001,0.002,0,0.006,0.013,-0.002,0.001
642,0.006,0.004,0.019,0.003,0.003,0.003,0.016,0.009,0.007,0.007,0.015,0.005,0.004,0.004,0.01,0.012,0.003,0.007
643,0.008,0.009,0.02,0.004,0.008,0.013,0.02,0.023,0.009,0.01,0.021,0.009,0.008,0.009,0.012,0.012,0.013,0.021
644,0.01,0.011,0.015,0.007,0.012,0.021,0.021,0.034,0.013,0.015,0.021,0.017,0.01,0.01,0.016,0.02,0.019,0.032
645,0.01,0.013,0.011,0.009,0.015,0.019,0.027,0.03,0.021,0.021,0.02,0.018,0.013,0.011,0.021,0.021,0.018,0.034
646,0.005,0.011,0.009,0.012,0.014,0.016,0.029,0.02,0.022,0.024,0.018,0.014,0.013,0.009,0.025,0.014,0.012,0.026
647,0.005,0.014,0.011,0.011,0.013,0.015,0.029,0.014,0.019,0.022,0.015,0.014,0.012,0.008,0.024,0.009,0.011,0.021
648,0.004,0.018,0.012,0.008,0.012,0.017,0.024,0.021,0.012,0.011,0.013,0.016,0.008,0.007,0.02,0.009,0.016,0.024
649,0.001,0.017,0.008,0.006,0.01,0.019,0.021,0.029,0.01,0.007,0.006,0.021,0.005,0.005,0.014,0.009,0.022,0.026
650,-0.002,0.014,0.005,0.004,0.01,0.014,0.022,0.029,0.01,0.007,0.006,0.02,0.007,0.006,0.012,0.007,0.021,0.027
651,-0.006,0.005,0,-0.001,0.006,0.002,0.017,0.011,0.007,0.003,0,0.007,0.003,0.004,0.005,0.002,0.009,0.01
652,-0.01,-0.001,-0.012,-0.002,0.002,-0.005,0.012,-0.003,0.003,0.001,-0.004,-0.005,-0.002,0.002,0.001,-0.005,-0.007,-0.004
653,-0.014,0.003,-0.019,0.001,0,-0.005,0.007,-0.006,0,0.002,-0.009,-0.007,-0.002,0,-0.002,-0.009,-0.013,-0.011
654,-0.013,0.012,-0.015,0.005,0.002,0.003,0.012,0,0.004,0.007,-0.01,0.002,0.001,0,0.004,-0.004,-0.004,-0.003
655,-0.013,0.012,-0.008,0.007,0.003,0.006,0.016,0,0.007,0.006,-0.009,0.002,0.003,-0.001,0.005,-0.002,0,0.005
656,-0.015,0.003,-0.011,0.002,0.002,0.002,0.015,-0.005,0.007,0.006,-0.009,-0.007,0.001,-0.002,-0.002,-0.004,-0.008,0.002
657,-0.018,-0.001,-0.017,-0.003,0.003,-0.004,0.011,-0.007,0.004,0.008,-0.008,-0.015,0.002,0,-0.008,-0.013,-0.017,-0.006
658,-0.013,0.001,-0.008,-0.004,0.006,-0.006,0.009,0.001,0.004,0.011,-0.002,-0.01,0.006,0.004,-0.007,-0.011,-0.017,-0.005
659,-0.009,0.003,0.002,-0.003,0.007,-0.003,0.007,0.008,0.003,0.006,-0.002,-0.002,0.005,0.004,-0.001,-0.007,-0.008,0.002
660,-0.005,0.003,0.005,0.004,0.008,0.001,0.011,0.012,0.004,0.006,0,0.003,0.003,0.003,0.003,-0.001,-0.003,0.009
661,-0.004,0.01,0.001,0.011,0.01,0.003,0.016,0.012,0.008,0.01,0.003,0.007,0.004,0.004,0.007,0.006,0.002,0.016
662,0.002,0.019,0.008,0.017,0.014,0.001,0.018,0.011,0.011,0.015,0.009,0.007,0.009,0.007,0.007,0.012,0,0.015
663,0.004,0.026,0.013,0.018,0.016,-0.006,0.014,0.009,0.007,0.013,0.011,0.004,0.011,0.01,0.002,0.01,-0.003,0.011
664,0.007,0.026,0.018,0.011,0.017,-0.007,0.012,0.01,0.001,0.008,0.012,-0.001,0.011,0.013,0.002,0.009,-0.004,0.008
665,0.007,0.021,0.015,0.005,0.015,-0.005,0.011,0.014,0.002,0.008,0.013,-0.005,0.011,0.014,0.003,0.011,-0.002,0.01
666,0.001,0.015,0.009,0,0.01,-0.004,0.01,0.013,0.004,0.009,0.01,-0.004,0.009,0.009,0.004,0.012,-0.004,0.011
667,-0.005,0.01,0,0.002,0.008,-0.004,0.015,0.009,0.006,0.015,0.008,0.004,0.009,0.005,0.003,0.007,-0.001,0.015
668,-0.009,0.008,-0.004,0.005,0.009,0,0.019,0.002,0.008,0.017,0.008,0.008,0.009,0.005,0.005,0.002,0.005,0.016
669,-0.007,0.012,-0.001,0.01,0.011,0.002,0.019,0,0.013,0.016,0.006,0.003,0.01,0.007,0.009,0.001,0.011,0.015
670,-0.008,0.018,0.001,0.011,0.01,0.005,0.02,-0.004,0.014,0.012,-0.001,0,0.009,0.007,0.009,-0.003,0.007,0.01
671,-0.007,0.016,0.004,0.011,0.008,0.005,0.018,-0.001,0.01,0.009,-0.005,-0.001,0.009,0.005,0.01,-0.006,0.001,0.004
672,-0.005,0.006,0.007,0.008,0.008,0.002,0.015,0.006,0.004,0.007,-0.003,0.005,0.006,0.003,0.009,-0.002,0,0.004
673,0,0.001,0.007,0.004,0.007,-0.003,0.01,0.011,0,0.004,0.006,0.009,0.001,0.002,0.006,0.006,-0.002,0.007
674,-0.01,0.001,-0.003,0.004,0.005,-0.009,0.008,0.011,0.002,0.005,0.004,0.004,0,0,-0.001,0.004,-0.006,0.009
675,-0.026,0.002,-0.015,0.008,0.002,-0.009,0.013,0.003,0.007,0.01,-0.008,-0.006,0.004,0,-0.003,-0.007,-0.011,0.003
676,-0.033,-0.001,-0.014,0.013,0.002,-0.001,0.018,0.001,0.011,0.017,-0.015,-0.003,0.008,0.001,0.003,-0.012,-0.008,0.004
677,-0.022,-0.001,-0.007,0.011,0.005,0.007,0.021,0.004,0.013,0.018,-0.007,0.003,0.011,0.005,0.011,-0.01,-0.005,0.008
678,-0.007,0.003,-0.001,0.005,0.007,0.013,0.018,0.01,0.013,0.014,0.004,0.007,0.009,0.007,0.015,-0.004,0.001,0.012
679,-0.003,0.006,0,0.003,0.009,0.015,0.02,0.013,0.016,0.014,0.004,0.006,0.011,0.007,0.015,0,0.008,0.013
680,-0.003,0.004,-0.002,0.004,0.009,0.012,0.019,0.008,0.018,0.015,0.001,0.002,0.011,0.004,0.012,0.003,0.006,0.009
681,-0.006,0.002,-0.002,0.009,0.009,0.001,0.019,0.004,0.014,0.014,-0.002,-0.002,0.011,0.004,0.007,0.002,-0.002,0.004
682,-0.001,0.006,0,0.01,0.013,-0.003,0.019,0.002,0.012,0.013,0.003,-0.003,0.011,0.008,0.004,0.002,-0.008,-0.002
683,0.001,0.007,0.006,0.011,0.015,0.004,0.021,0.002,0.013,0.017,0.007,0.003,0.013,0.011,0.003,0.001,-0.003,-0.001
684,0.007,0.012,0.01,0.012,0.018,0.011,0.025,0.008,0.017,0.023,0.011,0.008,0.014,0.014,0.007,0.007,0.003,0.004
685,0.01,0.014,0.009,0.011,0.016,0.014,0.026,0.016,0.016,0.022,0.013,0.01,0.012,0.012,0.01,0.009,0.006,0.014
686,0.008,0.018,0.008,0.01,0.014,0.013,0.028,0.024,0.016,0.02,0.009,0.014,0.009,0.011,0.011,0.008,0.01,0.019
687,0.006,0.021,0.013,0.007,0.012,0.018,0.026,0.026,0.015,0.019,0.01,0.019,0.007,0.006,0.013,0.008,0.016,0.019
688,0.009,0.018,0.015,0.007,0.009,0.02,0.022,0.022,0.015,0.015,0.009,0.02,0.006,0.003,0.016,0.01,0.016,0.017
689,0.006,0.013,0.015,0.007,0.007,0.014,0.018,0.016,0.015,0.014,0.01,0.014,0.007,0.003,0.012,0.003,0.008,0.013
690,0.006,0.008,0.015,0.007,0.007,0.004,0.013,0.014,0.011,0.01,0.014,0.003,0.006,0.003,0.006,0.002,0.003,0.017
691,0.008,0.007,0.014,0.004,0.006,-0.005,0.005,0.014,-0.002,0.004,0.012,0,0.002,0.002,0.005,0.007,-0.003,0.018
692,0.012,0.008,0.015,0.003,0.009,-0.004,-0.001,0.015,-0.01,-0.001,0.017,0.005,0,0.001,0.002,0.014,-0.003,0.019
693,0.01,0.006,0.014,0.002,0.01,-0.002,-0.003,0.016,-0.011,-0.005,0.014,0.008,-0.002,0.002,0,0.014,-0.004,0.018
694,0.008,0.006,0.009,0.001,0.01,0.001,0.002,0.018,-0.005,-0.002,0.013,0.007,0.001,0.003,-0.005,0.012,0,0.016
695,0.001,0.005,-0.002,0.003,0.008,-0.002,0.007,0.012,-0.001,0.002,0.006,0.002,0.004,0.006,-0.004,0.007,0.001,0.01
696,-0.005,0.008,-0.007,0.01,0.012,-0.003,0.012,0.004,0.005,0.008,0.003,-0.002,0.01,0.011,-0.003,0.004,-0.002,0.003
697,-0.005,0.01,-0.005,0.015,0.013,-0.004,0.015,-0.003,0.011,0.014,0,-0.006,0.012,0.012,-0.001,0.002,-0.007,0.003
698,-0.006,0.013,-0.007,0.015,0.01,-0.004,0.014,-0.009,0.012,0.017,-0.005,-0.011,0.01,0.009,-0.003,-0.003,-0.012,-0.001
699,-0.011,0.016,-0.01,0.013,0.007,-0.003,0.012,-0.007,0.008,0.014,-0.005,-0.01,0.009,0.007,-0.004,-0.007,-0.011,0
700,-0.006,0.014,-0.013,0.008,0.007,-0.002,0.009,-0.003,0.003,0.009,-0.002,-0.004,0.011,0.006,0.002,0,-0.008,0.004
701,0.002,0.013,-0.01,0.005,0.011,0.004,0.013,0.008,0.007,0.012,0.001,0.001,0.015,0.01,0.009,0.01,-0.002,0.013
702,0.005,0.012,-0.006,0.005,0.014,0.007,0.022,0.01,0.015,0.019,0.004,0.007,0.016,0.013,0.012,0.012,0.003,0.017
703,-0.002,0.008,-0.006,0.005,0.013,0.008,0.027,0.011,0.017,0.02,-0.002,0.005,0.014,0.013,0.007,0.007,0.004,0.017
704,-0.006,0.003,-0.006,0.004,0.011,0.007,0.027,0.012,0.018,0.018,-0.008,0.004,0.011,0.01,0.005,0.003,-0.001,0.014
705,-0.005,0.001,-0.006,0.004,0.009,0.006,0.026,0.01,0.017,0.016,-0.012,0.002,0.008,0.008,0.003,-0.006,-0.005,0.009
706,-0.008,-0.002,-0.006,-0.001,0.003,0.002,0.018,0.01,0.01,0.01,-0.007,0,0.004,0.003,0,-0.008,-0.007,0.005
707,-0.007,0.001,-0.004,-0.003,0.003,-0.001,0.011,0.006,0.001,0.006,-0.005,-0.007,0.001,0,-0.005,-0.008,-0.006,0.004
708,-0.004,0.009,-0.001,-0.001,0.006,0,0.011,0.005,0.002,0.006,-0.005,-0.008,0.003,0.001,-0.001,-0.003,-0.005,0.005
709,-0.001,0.015,0.003,0.008,0.007,0.004,0.016,0,0.01,0.013,-0.002,-0.006,0.008,0.002,0.005,-0.001,-0.002,0.004
710,-0.004,0.009,0.003,0.009,0.005,0.006,0.018,0.003,0.014,0.016,0.001,-0.004,0.008,0,0.009,0.001,0.002,0.006
711,-0.001,-0.001,0.003,0.002,0.002,0.005,0.017,0.009,0.009,0.011,0.004,0.001,0.002,-0.001,0.005,0.002,0.004,0.012
712,0.007,-0.003,0.004,-0.001,0.004,0.005,0.017,0.015,0.007,0.008,0.008,0.006,-0.001,0.002,0.004,0.007,0.003,0.016
713,0.01,0.005,0.01,0.005,0.008,0.001,0.015,0.013,0.006,0.009,0.012,0.005,0.005,0.007,0.005,0.012,0.006,0.016
714,0.007,0.009,0.011,0.011,0.009,-0.006,0.013,0.006,0.006,0.01,0.009,0.001,0.01,0.008,0.006,0.015,-0.002,0.015
715,0.004,0.006,0.007,0.01,0.006,-0.008,0.009,0.003,0.004,0.008,0.008,-0.002,0.01,0.004,0.004,0.017,-0.007,0.011
716,0.002,0.003,0.002,0.006,0.003,-0.002,0.006,0.01,0.002,0.006,0.01,-0.006,0.004,0.001,0.002,0.013,-0.013,0.009
717,-0.003,0.004,-0.006,0.002,0.002,-0.001,0.001,0.012,0,0.002,0.003,-0.01,-0.004,-0.002,0.001,0.007,-0.009,0.006
718,-0.014,0.004,-0.008,0.002,0.003,-0.003,0.002,0.011,0.001,0.001,-0.011,-0.007,-0.004,-0.003,-0.002,-0.003,-0.011,0.003
719,-0.011,0.004,0,0.006,0.007,0,0.011,0.011,0.005,0.006,-0.01,-0.001,0.001,0.001,0.002,-0.003,-0.004,0.002
720,-0.009,0.002,0.002,0.002,0.006,0.006,0.018,0.012,0.009,0.009,-0.004,0.002,0.001,0.003,0.003,-0.001,0.003,0.005
721,-0.012,0.001,-0.004,-0.004,-0.001,0.005,0.015,0.007,0.005,0.003,-0.007,0,-0.004,0,0,0,-0.001,0.003
722,-0.017,-0.002,-0.012,-0.005,-0.008,-0.001,0.007,0.007,-0.001,-0.001,-0.014,-0.008,-0.009,-0.007,-0.004,-0.003,-0.004,0.004
723,-0.012,0.001,-0.014,0,-0.007,-0.003,0.006,0.006,-0.003,0.002,-0.01,-0.006,-0.007,-0.008,0,-0.005,0.002,0.009
724,-0.011,-0.001,-0.018,0.002,-0.003,0,0.01,0.006,-0.003,0.006,-0.009,-0.001,-0.004,-0.006,0.003,-0.006,0,0.01
725,-0.012,-0.002,-0.019,0.003,0.003,-0.001,0.011,0,0,0.005,-0.006,-0.001,0.002,-0.002,0.001,-0.009,-0.012,-0.001
726,-0.011,-0.001,-0.007,0.006,0.009,-0.008,0.016,0.001,0.007,0.006,-0.003,-0.009,0.005,0.004,0,-0.007,-0.013,-0.007
727,-0.007,0.003,0.003,0.007,0.013,-0.01,0.017,0.001,0.013,0.01,-0.002,-0.01,0.007,0.008,0.006,-0.005,-0.006,-0.004
728,-0.008,0.005,0.005,0.007,0.012,-0.006,0.019,0.005,0.014,0.014,-0.004,-0.004,0.008,0.008,0.013,-0.001,-0.002,0.001
729,-0.011,0.005,0,0.007,0.009,-0.005,0.014,0,0.011,0.011,-0.002,0.005,0.005,0.005,0.009,-0.004,-0.005,0.009
730,-0.011,0.006,0,0.005,0.005,-0.005,0.009,-0.001,0.006,0.004,0.004,0.002,-0.002,-0.001,-0.001,-0.005,-0.005,0.011
731,-0.003,0.006,0.004,0,0.004,-0.004,0.007,0.002,0.003,0.001,0.01,0.002,-0.001,0.001,-0.006,0.003,-0.004,0.013
732,0.002,0.002,0.005,-0.007,0.005,-0.002,0.012,0.009,0.007,0.005,0.009,-0.002,0.003,0.004,-0.003,0.008,-0.002,0.005
733,0.005,0.001,0.002,-0.012,0.008,-0.005,0.013,0.009,0.008,0.008,0.003,-0.002,0.008,0.005,0,0.003,-0.002,0.002
734,0,-0.002,-0.001,-0.012,0.006,-0.011,0.005,0.009,-0.001,0.004,-0.003,-0.011,0.006,0.001,-0.005,-0.006,-0.01,-0.002
735,-0.003,0.001,0.003,-0.004,0.003,-0.008,0,0.009,-0.01,-0.003,-0.001,-0.011,0,-0.002,-0.004,-0.005,-0.013,0.007
736,-0.007,0.005,0.001,0.003,0.002,-0.008,-0.003,0.017,-0.011,-0.005,0.001,-0.004,-0.005,-0.002,0.001,-0.002,-0.009,0.012
737,-0.004,0.004,-0.004,0.008,0.006,-0.007,0.003,0.014,-0.005,-0.003,0,0.005,-0.004,0.001,0.005,0.002,0.005,0.013
738,-0.003,0.002,-0.006,0.007,0.008,-0.001,0.011,0.01,0.002,0.002,-0.005,0.004,0.002,0.006,0.008,0.006,0.009,0.01
739,-0.002,0,-0.002,0.001,0.007,0.004,0.014,0.003,0.005,0.006,-0.004,-0.001,0.001,0.004,0.01,0.004,0.002,0.006
740,-0.01,-0.004,-0.003,-0.004,0.003,-0.003,0.003,0,-0.001,0.001,-0.002,-0.012,-0.002,-0.005,0.004,-0.003,-0.016,-0.003
741,-0.009,-0.006,-0.005,0,0.003,-0.012,-0.003,-0.005,-0.002,0,-0.006,-0.019,-0.002,-0.009,-0.008,-0.012,-0.02,-0.01
742,-0.012,-0.004,-0.011,0.004,0.003,-0.016,-0.001,-0.004,0.002,0.001,-0.009,-0.015,-0.002,-0.006,-0.011,-0.01,-0.015,-0.007
743,-0.017,-0.005,-0.008,0.002,0.003,-0.019,0.002,-0.004,0.005,0.004,-0.009,-0.016,0,0,-0.008,-0.006,-0.008,0
744,-0.013,-0.007,-0.004,0.002,0.001,-0.012,0.004,-0.003,0.002,0.002,-0.004,-0.01,0.005,0.001,-0.005,-0.004,-0.014,0.003
745,-0.008,-0.008,0.001,0.005,0,-0.01,0.006,-0.005,-0.005,-0.001,-0.003,-0.011,0.005,0.001,-0.003,-0.009,-0.021,0.008
746,-0.004,-0.009,0.007,0.004,0.001,-0.008,0.007,0,-0.004,-0.001,0.003,-0.006,0.003,0.001,-0.002,-0.006,-0.017,0.012
747,-0.001,-0.006,0.005,0,0.002,-0.012,0.006,0.005,-0.003,0.003,0.008,-0.006,0.001,0.001,-0.003,0.001,-0.007,0.009
748,0,-0.002,0,-0.004,0.001,-0.011,0.009,0.004,-0.003,0.005,0.007,-0.004,0.002,0,-0.003,0.001,-0.004,0.005
749,-0.001,0.002,0.001,-0.004,0,-0.005,0.006,-0.001,-0.005,0.001,0,0.004,0,-0.001,0,0.002,0.001,0
750,0,0,0,0,0,0,0,0,0,0,0,0,0,0,0,0,0,0
